3997.91406	0.99270
3995.98550	0.99355
3994.05693	0.99274
3992.12837	0.99119
3990.19980	0.99111
3988.27124	0.99218
3986.34268	0.99337
3984.41411	0.99433
3982.48555	0.99329
3980.55698	0.99020
3978.62842	0.98759
3976.69985	0.98590
3974.77129	0.98532
3972.84272	0.98579
3970.91416	0.98500
3968.98560	0.98389
3967.05703	0.98435
3965.12847	0.98434
3963.19990	0.98278
3961.27134	0.98085
3959.34277	0.97949
3957.41421	0.97917
3955.48564	0.98027
3953.55708	0.98270
3951.62852	0.98473
3949.69995	0.98367
3947.77139	0.98146
3945.84282	0.98185
3943.91426	0.98209
3941.98569	0.97930
3940.05713	0.97676
3938.12856	0.97701
3936.20000	0.97918
3934.27144	0.98028
3932.34287	0.97679
3930.41431	0.97124
3928.48574	0.97053
3926.55718	0.97364
3924.62861	0.97501
3922.70005	0.97458
3920.77148	0.97415
3918.84292	0.97262
3916.91436	0.97123
3914.98579	0.97045
3913.05723	0.96871
3911.12866	0.96616
3909.20010	0.96518
3907.27153	0.96760
3905.34297	0.97107
3903.41440	0.97063
3901.48584	0.96642
3899.55728	0.96177
3897.62871	0.95972
3895.70015	0.96102
3893.77158	0.96251
3891.84302	0.95982
3889.91445	0.95682
3887.98589	0.95955
3886.05733	0.96365
3884.12876	0.96228
3882.20020	0.95659
3880.27163	0.94925
3878.34307	0.94766
3876.41450	0.95235
3874.48594	0.95674
3872.55737	0.95781
3870.62881	0.95512
3868.70025	0.95130
3866.77168	0.95284
3864.84312	0.95524
3862.91455	0.95134
3860.98599	0.94737
3859.05742	0.94908
3857.12886	0.95713
3855.20029	0.96844
3853.27173	0.96096
3851.34317	0.94254
3849.41460	0.93807
3847.48604	0.93954
3845.55747	0.94133
3843.62891	0.94268
3841.70034	0.94546
3839.77178	0.94658
3837.84321	0.94155
3835.91465	0.93745
3833.98609	0.93581
3832.05752	0.93231
3830.12896	0.92865
3828.20039	0.92741
3826.27183	0.92866
3824.34326	0.93338
3822.41470	0.93737
3820.48613	0.93331
3818.55757	0.93091
3816.62901	0.93030
3814.70044	0.92550
3812.77188	0.92256
3810.84331	0.92449
3808.91475	0.92890
3806.98618	0.92920
3805.05762	0.92701
3803.12905	0.92628
3801.20049	0.92273
3799.27193	0.92137
3797.34336	0.92126
3795.41480	0.91866
3793.48623	0.91746
3791.55767	0.91758
3789.62910	0.91671
3787.70054	0.91528
3785.77197	0.91434
3783.84341	0.91513
3781.91485	0.91698
3779.98628	0.91498
3778.05772	0.90908
3776.12915	0.90664
3774.20059	0.90817
3772.27202	0.90964
3770.34346	0.90831
3768.41489	0.90723
3766.48633	0.90844
3764.55777	0.91013
3762.62920	0.91236
3760.70064	0.91263
3758.77207	0.90843
3756.84351	0.90603
3754.91494	0.90933
3752.98638	0.91455
3751.05781	0.91132
3749.12925	0.90502
3747.20069	0.90910
3745.27212	0.91228
3743.34356	0.90599
3741.41499	0.90296
3739.48643	0.90704
3737.55786	0.91456
3735.62930	0.91611
3733.70074	0.90666
3731.77217	0.89998
3729.84361	0.90004
3727.91504	0.90262
3725.98648	0.90228
3724.05791	0.89905
3722.12935	0.89721
3720.20078	0.89592
3718.27222	0.89526
3716.34366	0.89726
3714.41509	0.90141
3712.48653	0.90236
3710.55796	0.89688
3708.62940	0.89478
3706.70083	0.89709
3704.77227	0.90004
3702.84370	0.89873
3700.91514	0.89234
3698.98658	0.88843
3697.05801	0.88769
3695.12945	0.88916
3693.20088	0.89506
3691.27232	0.90269
3689.34375	0.90006
3687.41519	0.89133
3685.48662	0.88938
3683.55806	0.89205
3681.62950	0.89650
3679.70093	0.90304
3677.77237	0.91048
3675.84380	0.90845
3673.91524	0.90259
3671.98667	0.90445
3670.05811	0.90354
3668.12954	0.90201
3666.20098	0.90604
3664.27242	0.91038
3662.34385	0.91371
3660.41529	0.91831
3658.48672	0.92266
3656.55816	0.92270
3654.62959	0.92438
3652.70103	0.93409
3650.77246	0.94409
3648.84390	0.93557
3646.91534	0.92534
3644.98677	0.92831
3643.05821	0.93626
3641.12964	0.94332
3639.20108	0.94816
3637.27251	0.95239
3635.34395	0.95611
3633.41538	0.96078
3631.48682	0.96847
3629.55826	0.97171
3627.62969	0.96549
3625.70113	0.96665
3623.77256	0.97361
3621.84400	0.98006
3619.91543	0.98297
3617.98687	0.98414
3616.05830	0.98723
3614.12974	0.98887
3612.20118	0.98993
3610.27261	0.99422
3608.34405	0.99903
3606.41548	1.00423
3604.48692	1.01124
3602.55835	1.01721
3600.62979	1.02010
3598.70123	1.02270
3596.77266	1.02712
3594.84410	1.03053
3592.91553	1.03321
3590.98697	1.04060
3589.05840	1.05086
3587.12984	1.05314
3585.20127	1.05060
3583.27271	1.05234
3581.34415	1.05681
3579.41558	1.06121
3577.48702	1.06325
3575.55845	1.06395
3573.62989	1.06681
3571.70132	1.07389
3569.77276	1.08351
3567.84419	1.09028
3565.91563	1.09103
3563.98707	1.09206
3562.05850	1.09504
3560.12994	1.09792
3558.20137	1.10106
3556.27281	1.10603
3554.34424	1.11213
3552.41568	1.11698
3550.48711	1.12180
3548.55855	1.12954
3546.62999	1.13776
3544.70142	1.14216
3542.77286	1.14387
3540.84429	1.14583
3538.91573	1.14984
3536.98716	1.15507
3535.05860	1.15804
3533.13003	1.16020
3531.20147	1.16580
3529.27291	1.17256
3527.34434	1.17699
3525.41578	1.18179
3523.48721	1.18696
3521.55865	1.19010
3519.63008	1.19352
3517.70152	1.19985
3515.77295	1.20861
3513.84439	1.21693
3511.91583	1.22272
3509.98726	1.22835
3508.05870	1.23677
3506.13013	1.24665
3504.20157	1.25371
3502.27300	1.25605
3500.34444	1.26055
3498.41587	1.26999
3496.48731	1.27945
3494.55875	1.28673
3492.63018	1.29242
3490.70162	1.29673
3488.77305	1.30013
3486.84449	1.30306
3484.91592	1.30660
3482.98736	1.31034
3481.05879	1.31339
3479.13023	1.31766
3477.20167	1.32221
3475.27310	1.32496
3473.34454	1.32883
3471.41597	1.33610
3469.48741	1.34365
3467.55884	1.34691
3465.63028	1.34819
3463.70171	1.35305
3461.77315	1.36002
3459.84459	1.36405
3457.91602	1.36370
3455.98746	1.36288
3454.05889	1.36313
3452.13033	1.36239
3450.20176	1.36427
3448.27320	1.37164
3446.34464	1.37972
3444.41607	1.38324
3442.48751	1.38348
3440.55894	1.38705
3438.63038	1.39622
3436.70181	1.40241
3434.77325	1.40057
3432.84468	1.39823
3430.91612	1.39948
3428.98756	1.40078
3427.05899	1.40137
3425.13043	1.40163
3423.20186	1.39945
3421.27330	1.39369
3419.34473	1.38758
3417.41617	1.38553
3415.48760	1.38755
3413.55904	1.39162
3411.63048	1.39645
3409.70191	1.39930
3407.77335	1.39794
3405.84478	1.39605
3403.91622	1.39762
3401.98765	1.40097
3400.05909	1.40377
3398.13052	1.40452
3396.20196	1.40295
3394.27340	1.40214
3392.34483	1.40299
3390.41627	1.40383
3388.48770	1.40485
3386.55914	1.40710
3384.63057	1.41129
3382.70201	1.41483
3380.77344	1.41453
3378.84488	1.41288
3376.91632	1.41369
3374.98775	1.41686
3373.05919	1.41996
3371.13062	1.42001
3369.20206	1.41702
3367.27349	1.41423
3365.34493	1.41474
3363.41636	1.41998
3361.48780	1.42610
3359.55924	1.42907
3357.63067	1.43145
3355.70211	1.43287
3353.77354	1.43163
3351.84498	1.43135
3349.91641	1.43332
3347.98785	1.43707
3346.05928	1.44183
3344.13072	1.44497
3342.20216	1.44808
3340.27359	1.45220
3338.34503	1.45421
3336.41646	1.45580
3334.48790	1.46105
3332.55933	1.46912
3330.63077	1.47784
3328.70220	1.48689
3326.77364	1.49586
3324.84508	1.50406
3322.91651	1.51190
3320.98795	1.51668
3319.05938	1.51629
3317.13082	1.51764
3315.20225	1.52519
3313.27369	1.53516
3311.34513	1.54435
3309.41656	1.55026
3307.48800	1.55187
3305.55943	1.55113
3303.63087	1.55152
3301.70230	1.55467
3299.77374	1.55706
3297.84517	1.56000
3295.91661	1.56669
3293.98805	1.57143
3292.05948	1.57238
3290.13092	1.57152
3288.20235	1.56642
3286.27379	1.56070
3284.34522	1.56229
3282.41666	1.57307
3280.48809	1.58559
3278.55953	1.58865
3276.63097	1.58065
3274.70240	1.56810
3272.77384	1.55719
3270.84527	1.55324
3268.91671	1.55370
3266.98814	1.54857
3265.05958	1.53743
3263.13101	1.52687
3261.20245	1.51578
3259.27389	1.50279
3257.34532	1.49147
3255.41676	1.48299
3253.48819	1.47723
3251.55963	1.47258
3249.63106	1.46482
3247.70250	1.45355
3245.77393	1.44210
3243.84537	1.43155
3241.91681	1.42168
3239.98824	1.41384
3238.05968	1.40668
3236.13111	1.39674
3234.20255	1.38601
3232.27398	1.37772
3230.34542	1.37113
3228.41685	1.36658
3226.48829	1.36542
3224.55973	1.36481
3222.63116	1.36173
3220.70260	1.35767
3218.77403	1.35145
3216.84547	1.34114
3214.91690	1.33363
3212.98834	1.33238
3211.05977	1.32929
3209.13121	1.32009
3207.20265	1.30968
3205.27408	1.30219
3203.34552	1.29772
3201.41695	1.29446
3199.48839	1.29085
3197.55982	1.28724
3195.63126	1.28495
3193.70269	1.28385
3191.77413	1.28213
3189.84557	1.27729
3187.91700	1.26877
3185.98844	1.26001
3184.05987	1.25302
3182.13131	1.24705
3180.20274	1.24247
3178.27418	1.23787
3176.34562	1.23232
3174.41705	1.22921
3172.48849	1.22795
3170.55992	1.22277
3168.63136	1.21409
3166.70279	1.20887
3164.77423	1.20809
3162.84566	1.20558
3160.91710	1.20057
3158.98854	1.19800
3157.05997	1.19688
3155.13141	1.19322
3153.20284	1.18764
3151.27428	1.18168
3149.34571	1.17660
3147.41715	1.17399
3145.48858	1.17251
3143.56002	1.16992
3141.63146	1.16713
3139.70289	1.16600
3137.77433	1.16577
3135.84576	1.16510
3133.91720	1.16447
3131.98863	1.16347
3130.06007	1.16130
3128.13150	1.16028
3126.20294	1.16202
3124.27438	1.16445
3122.34581	1.16508
3120.41725	1.16329
3118.48868	1.16111
3116.56012	1.16053
3114.63155	1.16087
3112.70299	1.16125
3110.77442	1.16140
3108.84586	1.16095
3106.91730	1.16106
3104.98873	1.16238
3103.06017	1.16281
3101.13160	1.16084
3099.20304	1.15796
3097.27447	1.15686
3095.34591	1.15751
3093.41734	1.15715
3091.48878	1.15573
3089.56022	1.15461
3087.63165	1.15220
3085.70309	1.14806
3083.77452	1.14443
3081.84596	1.14142
3079.91739	1.13864
3077.98883	1.13759
3076.06026	1.13746
3074.13170	1.13546
3072.20314	1.13099
3070.27457	1.12578
3068.34601	1.12206
3066.41744	1.12022
3064.48888	1.11856
3062.56031	1.11634
3060.63175	1.11326
3058.70318	1.10812
3056.77462	1.10217
3054.84606	1.09759
3052.91749	1.09416
3050.98893	1.09193
3049.06036	1.09050
3047.13180	1.08752
3045.20323	1.08271
3043.27467	1.07857
3041.34610	1.07574
3039.41754	1.07242
3037.48898	1.06829
3035.56041	1.06416
3033.63185	1.06024
3031.70328	1.05754
3029.77472	1.05614
3027.84615	1.05377
3025.91759	1.04997
3023.98903	1.04714
3022.06046	1.04564
3020.13190	1.04322
3018.20333	1.03968
3016.27477	1.03697
3014.34620	1.03547
3012.41764	1.03372
3010.48907	1.03170
3008.56051	1.03031
3006.63195	1.02855
3004.70338	1.02620
3002.77482	1.02552
3000.84625	1.02660
2998.91769	1.02699
2996.98912	1.02699
2995.06056	1.02844
2993.13199	1.03061
2991.20343	1.03216
2989.27487	1.03353
2987.34630	1.03620
2985.41774	1.04065
2983.48917	1.04613
2981.56061	1.05231
2979.63204	1.05816
2977.70348	1.06300
2975.77491	1.06810
2973.84635	1.07419
2971.91779	1.08115
2969.98922	1.08821
2968.06066	1.09378
2966.13209	1.09812
2964.20353	1.10196
2962.27496	1.10393
2960.34640	1.10393
2958.41783	1.10275
2956.48927	1.09919
2954.56071	1.09306
2952.63214	1.08681
2950.70358	1.08218
2948.77501	1.07889
2946.84645	1.07743
2944.91788	1.07922
2942.98932	1.08383
2941.06075	1.08957
2939.13219	1.09618
2937.20363	1.10418
2935.27506	1.11262
2933.34650	1.12033
2931.41793	1.12708
2929.48937	1.13269
2927.56080	1.13746
2925.63224	1.14102
2923.70367	1.14249
2921.77511	1.14230
2919.84655	1.14083
2917.91798	1.13629
2915.98942	1.12503
2914.06085	1.10733
2912.13229	1.08914
2910.20372	1.07505
2908.27516	1.06489
2906.34659	1.05672
2904.41803	1.04970
2902.48947	1.04398
2900.56090	1.03971
2898.63234	1.03686
2896.70377	1.03490
2894.77521	1.03316
2892.84664	1.03063
2890.91808	1.02655
2888.98952	1.02234
2887.06095	1.01972
2885.13239	1.01856
2883.20382	1.01823
2881.27526	1.01805
2879.34669	1.01834
2877.41813	1.01959
2875.48956	1.02005
2873.56100	1.01795
2871.63244	1.01339
2869.70387	1.00702
2867.77531	0.99984
2865.84674	0.99345
2863.91818	0.98908
2861.98961	0.98673
2860.06105	0.98578
2858.13248	0.98672
2856.20392	0.99031
2854.27536	0.99532
2852.34679	0.99947
2850.41823	0.99946
2848.48966	0.99089
2846.56110	0.97429
2844.63253	0.95582
2842.70397	0.94003
2840.77540	0.92847
2838.84684	0.92099
2836.91828	0.91575
2834.98971	0.91109
2833.06115	0.90690
2831.13258	0.90286
2829.20402	0.89835
2827.27545	0.89439
2825.34689	0.89178
2823.41832	0.88943
2821.48976	0.88676
2819.56120	0.88395
2817.63263	0.88110
2815.70407	0.87837
2813.77550	0.87515
2811.84694	0.87127
2809.91837	0.86815
2807.98981	0.86639
2806.06124	0.86471
2804.13268	0.86223
2802.20412	0.85894
2800.27555	0.85503
2798.34699	0.85137
2796.41842	0.84846
2794.48986	0.84613
2792.56129	0.84470
2790.63273	0.84359
2788.70416	0.84168
2786.77560	0.83938
2784.84704	0.83739
2782.91847	0.83526
2780.98991	0.83282
2779.06134	0.83079
2777.13278	0.82924
2775.20421	0.82761
2773.27565	0.82593
2771.34708	0.82452
2769.41852	0.82315
2767.48996	0.82123
2765.56139	0.81869
2763.63283	0.81604
2761.70426	0.81347
2759.77570	0.81104
2757.84713	0.80929
2755.91857	0.80815
2753.99001	0.80653
2752.06144	0.80431
2750.13288	0.80233
2748.20431	0.80088
2746.27575	0.79988
2744.34718	0.79889
2742.41862	0.79747
2740.49005	0.79597
2738.56149	0.79492
2736.63293	0.79395
2734.70436	0.79239
2732.77580	0.79027
2730.84723	0.78829
2728.91867	0.78665
2726.99010	0.78479
2725.06154	0.78265
2723.13297	0.78078
2721.20441	0.77895
2719.27585	0.77695
2717.34728	0.77575
2715.41872	0.77530
2713.49015	0.77397
2711.56159	0.77163
2709.63302	0.76945
2707.70446	0.76779
2705.77589	0.76635
2703.84733	0.76504
2701.91877	0.76365
2699.99020	0.76211
2698.06164	0.76088
2696.13307	0.75985
2694.20451	0.75813
2692.27594	0.75580
2690.34738	0.75373
2688.41881	0.75221
2686.49025	0.75112
2684.56169	0.74986
2682.63312	0.74791
2680.70456	0.74608
2678.77599	0.74521
2676.84743	0.74455
2674.91886	0.74312
2672.99030	0.74121
2671.06173	0.73981
2669.13317	0.73899
2667.20461	0.73792
2665.27604	0.73648
2663.34748	0.73509
2661.41891	0.73397
2659.49035	0.73297
2657.56178	0.73156
2655.63322	0.72961
2653.70465	0.72762
2651.77609	0.72610
2649.84753	0.72484
2647.91896	0.72322
2645.99040	0.72123
2644.06183	0.71951
2642.13327	0.71854
2640.20470	0.71828
2638.27614	0.71809
2636.34757	0.71723
2634.41901	0.71592
2632.49045	0.71456
2630.56188	0.71304
2628.63332	0.71166
2626.70475	0.71072
2624.77619	0.70990
2622.84762	0.70874
2620.91906	0.70719
2618.99049	0.70555
2617.06193	0.70426
2615.13337	0.70345
2613.20480	0.70258
2611.27624	0.70137
2609.34767	0.70006
2607.41911	0.69868
2605.49054	0.69735
2603.56198	0.69611
2601.63342	0.69490
2599.70485	0.69387
2597.77629	0.69289
2595.84772	0.69160
2593.91916	0.69024
2591.99059	0.68901
2590.06203	0.68742
2588.13346	0.68557
2586.20490	0.68408
2584.27634	0.68276
2582.34777	0.68122
2580.41921	0.67957
2578.49064	0.67810
2576.56208	0.67683
2574.63351	0.67572
2572.70495	0.67467
2570.77638	0.67362
2568.84782	0.67253
2566.91926	0.67112
2564.99069	0.66936
2563.06213	0.66784
2561.13356	0.66690
2559.20500	0.66606
2557.27643	0.66493
2555.34787	0.66348
2553.41930	0.66180
2551.49074	0.66039
2549.56218	0.65926
2547.63361	0.65794
2545.70505	0.65661
2543.77648	0.65563
2541.84792	0.65470
2539.91935	0.65341
2537.99079	0.65184
2536.06222	0.65037
2534.13366	0.64940
2532.20510	0.64909
2530.27653	0.64883
2528.34797	0.64800
2526.41940	0.64671
2524.49084	0.64525
2522.56227	0.64382
2520.63371	0.64257
2518.70514	0.64149
2516.77658	0.64035
2514.84802	0.63914
2512.91945	0.63783
2510.99089	0.63617
2509.06232	0.63461
2507.13376	0.63374
2505.20519	0.63312
2503.27663	0.63206
2501.34806	0.63051
2499.41950	0.62898
2497.49094	0.62784
2495.56237	0.62682
2493.63381	0.62574
2491.70524	0.62471
2489.77668	0.62358
2487.84811	0.62248
2485.91955	0.62157
2483.99098	0.62056
2482.06242	0.61921
2480.13386	0.61761
2478.20529	0.61601
2476.27673	0.61454
2474.34816	0.61326
2472.41960	0.61210
2470.49103	0.61081
2468.56247	0.60938
2466.63391	0.60797
2464.70534	0.60656
2462.77678	0.60517
2460.84821	0.60398
2458.91965	0.60297
2456.99108	0.60187
2455.06252	0.60041
2453.13395	0.59866
2451.20539	0.59710
2449.27683	0.59613
2447.34826	0.59531
2445.41970	0.59421
2443.49113	0.59310
2441.56257	0.59197
2439.63400	0.59050
2437.70544	0.58893
2435.77687	0.58762
2433.84831	0.58639
2431.91975	0.58501
2429.99118	0.58377
2428.06262	0.58283
2426.13405	0.58187
2424.20549	0.58081
2422.27692	0.57982
2420.34836	0.57893
2418.41979	0.57798
2416.49123	0.57683
2414.56267	0.57559
2412.63410	0.57448
2410.70554	0.57335
2408.77697	0.57218
2406.84841	0.57126
2404.91984	0.57035
2402.99128	0.56914
2401.06271	0.56790
2399.13415	0.56671
2397.20559	0.56549
2395.27702	0.56431
2393.34846	0.56295
2391.41989	0.56132
2389.49133	0.55994
2387.56276	0.55901
2385.63420	0.55830
2383.70563	0.55752
2381.77707	0.55645
2379.84851	0.55517
2377.91994	0.55383
2375.99138	0.55257
2374.06281	0.55174
2372.13425	0.55127
2370.20568	0.55099
2368.27712	0.55065
2366.34855	0.54912
2364.41999	0.54629
2362.49143	0.54415
2360.56286	0.54383
2358.63430	0.54401
2356.70573	0.54329
2354.77717	0.54193
2352.84860	0.54050
2350.92004	0.53876
2348.99147	0.53702
2347.06291	0.53598
2345.13435	0.53591
2343.20578	0.53590
2341.27722	0.53479
2339.34865	0.53309
2337.42009	0.53213
2335.49152	0.53163
2333.56296	0.53081
2331.63440	0.52973
2329.70583	0.52869
2327.77727	0.52826
2325.84870	0.52827
2323.92014	0.52816
2321.99157	0.52799
2320.06301	0.52712
2318.13444	0.52536
2316.20588	0.52372
2314.27732	0.52277
2312.34875	0.52235
2310.42019	0.52200
2308.49162	0.52154
2306.56306	0.52101
2304.63449	0.52024
2302.70593	0.51919
2300.77736	0.51819
2298.84880	0.51737
2296.92024	0.51647
2294.99167	0.51535
2293.06311	0.51435
2291.13454	0.51358
2289.20598	0.51278
2287.27741	0.51175
2285.34885	0.51068
2283.42028	0.50978
2281.49172	0.50890
2279.56316	0.50794
2277.63459	0.50700
2275.70603	0.50622
2273.77746	0.50563
2271.84890	0.50512
2269.92033	0.50458
2267.99177	0.50406
2266.06320	0.50363
2264.13464	0.50318
2262.20608	0.50252
2260.27751	0.50171
2258.34895	0.50096
2256.42038	0.50008
2254.49182	0.49893
2252.56325	0.49779
2250.63469	0.49676
2248.70612	0.49571
2246.77756	0.49479
2244.84900	0.49418
2242.92043	0.49357
2240.99187	0.49261
2239.06330	0.49166
2237.13474	0.49095
2235.20617	0.49035
2233.27761	0.48987
2231.34904	0.48960
2229.42048	0.48931
2227.49192	0.48889
2225.56335	0.48840
2223.63479	0.48788
2221.70622	0.48726
2219.77766	0.48646
2217.84909	0.48560
2215.92053	0.48480
2213.99196	0.48391
2212.06340	0.48288
2210.13484	0.48198
2208.20627	0.48125
2206.27771	0.48048
2204.34914	0.47969
2202.42058	0.47904
2200.49201	0.47848
2198.56345	0.47798
2196.63488	0.47746
2194.70632	0.47701
2192.77776	0.47674
2190.84919	0.47642
2188.92063	0.47600
2186.99206	0.47553
2185.06350	0.47490
2183.13493	0.47412
2181.20637	0.47333
2179.27781	0.47254
2177.34924	0.47177
2175.42068	0.47099
2173.49211	0.47013
2171.56355	0.46925
2169.63498	0.46847
2167.70642	0.46767
2165.77785	0.46692
2163.84929	0.46635
2161.92073	0.46586
2159.99216	0.46535
2158.06360	0.46470
2156.13503	0.46392
2154.20647	0.46319
2152.27790	0.46275
2150.34934	0.46246
2148.42077	0.46194
2146.49221	0.46124
2144.56365	0.46065
2142.63508	0.46010
2140.70652	0.45942
2138.77795	0.45863
2136.84939	0.45785
2134.92082	0.45714
2132.99226	0.45640
2131.06369	0.45564
2129.13513	0.45496
2127.20657	0.45431
2125.27800	0.45370
2123.34944	0.45307
2121.42087	0.45236
2119.49231	0.45148
2117.56374	0.45063
2115.63518	0.45006
2113.70661	0.44956
2111.77805	0.44883
2109.84949	0.44798
2107.92092	0.44716
2105.99236	0.44646
2104.06379	0.44584
2102.13523	0.44513
2100.20666	0.44430
2098.27810	0.44346
2096.34953	0.44259
2094.42097	0.44163
2092.49241	0.44074
2090.56384	0.44009
2088.63528	0.43950
2086.70671	0.43871
2084.77815	0.43782
2082.84958	0.43709
2080.92102	0.43652
2078.99245	0.43590
2077.06389	0.43525
2075.13533	0.43462
2073.20676	0.43390
2071.27820	0.43306
2069.34963	0.43223
2067.42107	0.43150
2065.49250	0.43075
2063.56394	0.42992
2061.63537	0.42909
2059.70681	0.42832
2057.77825	0.42761
2055.84968	0.42691
2053.92112	0.42619
2051.99255	0.42542
2050.06399	0.42460
2048.13542	0.42384
2046.20686	0.42313
2044.27830	0.42237
2042.34973	0.42156
2040.42117	0.42083
2038.49260	0.42004
2036.56404	0.41916
2034.63547	0.41824
2032.70691	0.41736
2030.77834	0.41660
2028.84978	0.41590
2026.92122	0.41514
2024.99265	0.41415
2023.06409	0.41309
2021.13552	0.41225
2019.20696	0.41157
2017.27839	0.41090
2015.34983	0.41027
2013.42126	0.40966
2011.49270	0.40888
2009.56414	0.40800
2007.63557	0.40719
2005.70701	0.40639
2003.77844	0.40541
2001.84988	0.40439
1999.92131	0.40357
1997.99275	0.40294
1996.06418	0.40230
1994.13562	0.40156
1992.20706	0.40081
1990.27849	0.40016
1988.34993	0.39962
1986.42136	0.39917
1984.49280	0.39867
1982.56423	0.39803
1980.63567	0.39724
1978.70710	0.39630
1976.77854	0.39540
1974.84998	0.39466
1972.92141	0.39392
1970.99285	0.39302
1969.06428	0.39208
1967.13572	0.39135
1965.20715	0.39079
1963.27859	0.39016
1961.35002	0.38951
1959.42146	0.38890
1957.49290	0.38829
1955.56433	0.38772
1953.63577	0.38729
1951.70720	0.38696
1949.77864	0.38654
1947.85007	0.38588
1945.92151	0.38495
1943.99294	0.38412
1942.06438	0.38370
1940.13582	0.38320
1938.20725	0.38234
1936.27869	0.38143
1934.35012	0.38059
1932.42156	0.37970
1930.49299	0.37875
1928.56443	0.37794
1926.63586	0.37724
1924.70730	0.37658
1922.77874	0.37607
1920.85017	0.37572
1918.92161	0.37557
1916.99304	0.37552
1915.06448	0.37522
1913.13591	0.37475
1911.20735	0.37439
1909.27878	0.37407
1907.35022	0.37356
1905.42166	0.37297
1903.49309	0.37247
1901.56453	0.37193
1899.63596	0.37127
1897.70740	0.37062
1895.77883	0.37009
1893.85027	0.36953
1891.92171	0.36887
1889.99314	0.36849
1888.06458	0.36833
1886.13601	0.36793
1884.20745	0.36734
1882.27888	0.36677
1880.35032	0.36630
1878.42175	0.36586
1876.49319	0.36539
1874.56463	0.36486
1872.63606	0.36422
1870.70750	0.36362
1868.77893	0.36347
1866.85037	0.36326
1864.92180	0.36246
1862.99324	0.36156
1861.06467	0.36090
1859.13611	0.36046
1857.20755	0.36001
1855.27898	0.35948
1853.35042	0.35898
1851.42185	0.35850
1849.49329	0.35797
1847.56472	0.35742
1845.63616	0.35736
1843.70759	0.35800
1841.77903	0.35821
1839.85047	0.35785
1837.92190	0.35759
1835.99334	0.35747
1834.06477	0.35711
1832.13621	0.35670
1830.20764	0.35665
1828.27908	0.35669
1826.35051	0.35645
1824.42195	0.35634
1822.49339	0.35619
1820.56482	0.35581
1818.63626	0.35552
1816.70769	0.35529
1814.77913	0.35495
1812.85056	0.35461
1810.92200	0.35452
1808.99343	0.35458
1807.06487	0.35459
1805.13631	0.35452
1803.20774	0.35439
1801.27918	0.35455
1799.35061	0.35489
1797.42205	0.35490
1795.49348	0.35472
1793.56492	0.35500
1791.63635	0.35601
1789.70779	0.35640
1787.77923	0.35624
1785.85066	0.35641
1783.92210	0.35686
1781.99353	0.35736
1780.06497	0.35806
1778.13640	0.35861
1776.20784	0.35865
1774.27927	0.35885
1772.35071	0.36027
1770.42215	0.36212
1768.49358	0.36326
1766.56502	0.36400
1764.63645	0.36468
1762.70789	0.36624
1760.77932	0.36885
1758.85076	0.37136
1756.92220	0.37449
1754.99363	0.37787
1753.06507	0.38105
1751.13650	0.38626
1749.20794	0.39389
1747.27937	0.40055
1745.35081	0.40582
1743.42224	0.41071
1741.49368	0.41548
1739.56512	0.42001
1737.63655	0.42299
1735.70799	0.42530
1733.77942	0.43032
1731.85086	0.43493
1729.92229	0.43763
1727.99373	0.44083
1726.06516	0.44457
1724.13660	0.44943
1722.20804	0.45437
1720.27947	0.45852
1718.35091	0.46532
1716.42234	0.47861
1714.49378	0.49062
1712.56521	0.49981
1710.63665	0.50973
1708.70808	0.52150
1706.77952	0.53892
1704.85096	0.56222
1702.92239	0.58372
1700.99383	0.61423
1699.06526	0.66260
1697.13670	0.70868
1695.20813	0.75429
1693.27957	0.78806
1691.35100	0.81499
1689.42244	0.84848
1687.49388	0.88070
1685.56531	0.91530
1683.63675	0.97387
1681.70818	1.02054
1679.77962	1.04907
1677.85105	1.07589
1675.92249	1.10943
1673.99392	1.14791
1672.06536	1.17872
1670.13680	1.21394
1668.20823	1.25368
1666.27967	1.27631
1664.35110	1.29600
1662.42254	1.32419
1660.49397	1.34814
1658.56541	1.36160
1656.63684	1.36942
1654.70828	1.37787
1652.77972	1.38936
1650.85115	1.39141
1648.92259	1.39013
1646.99402	1.38963
1645.06546	1.38941
1643.13689	1.38793
1641.20833	1.38622
1639.27976	1.38288
1637.35120	1.37936
1635.42264	1.37907
1633.49407	1.37737
1631.56551	1.37265
1629.63694	1.36470
1627.70838	1.35288
1625.77981	1.33559
1623.85125	1.30884
1621.92269	1.27624
1619.99412	1.24768
1618.06556	1.21209
1616.13699	1.16020
1614.20843	1.11859
1612.27986	1.08662
1610.35130	1.05288
1608.42273	1.01893
1606.49417	0.99100
1604.56561	0.96957
1602.63704	0.95208
1600.70848	0.93876
1598.77991	0.92963
1596.85135	0.92328
1594.92278	0.91890
1592.99422	0.91676
1591.06565	0.91690
1589.13709	0.91913
1587.20853	0.92370
1585.27996	0.93098
1583.35140	0.94102
1581.42283	0.95218
1579.49427	0.96267
1577.56570	0.97667
1575.63714	0.99868
1573.70857	1.01400
1571.78001	1.02407
1569.85145	1.04179
1567.92288	1.06367
1565.99432	1.08098
1564.06575	1.09661
1562.13719	1.10796
1560.20862	1.12240
1558.28006	1.15981
1556.35149	1.18006
1554.42293	1.18789
1552.49437	1.19537
1550.56580	1.20142
1548.63724	1.20506
1546.70867	1.20609
1544.78011	1.20579
1542.85154	1.20486
1540.92298	1.20077
1538.99441	1.19159
1537.06585	1.18522
1535.13729	1.17917
1533.20872	1.17083
1531.28016	1.16258
1529.35159	1.15622
1527.42303	1.14967
1525.49446	1.14240
1523.56590	1.13746
1521.63733	1.13582
1519.70877	1.13521
1517.78021	1.12990
1515.85164	1.11728
1513.92308	1.09999
1511.99451	1.07997
1510.06595	1.05877
1508.13738	1.02885
1506.20882	0.98361
1504.28025	0.95817
1502.35169	0.94069
1500.42313	0.92098
1498.49456	0.89670
1496.56600	0.86870
1494.63743	0.84631
1492.70887	0.83031
1490.78030	0.81297
1488.85174	0.79205
1486.92317	0.77641
1484.99461	0.76638
1483.06605	0.75920
1481.13748	0.75442
1479.20892	0.75245
1477.28035	0.75379
1475.35179	0.75984
1473.42322	0.77444
1471.49466	0.79247
1469.56610	0.80237
1467.63753	0.80863
1465.70897	0.81699
1463.78040	0.82646
1461.85184	0.83190
1459.92327	0.83531
1457.99471	0.84426
1456.06614	0.85772
1454.13758	0.86155
1452.20902	0.86125
1450.28045	0.86026
1448.35189	0.85849
1446.42332	0.85541
1444.49476	0.85134
1442.56619	0.84664
1440.63763	0.84159
1438.70906	0.83578
1436.78050	0.82753
1434.85194	0.81805
1432.92337	0.80984
1430.99481	0.80191
1429.06624	0.79475
1427.13768	0.79003
1425.20911	0.78770
1423.28055	0.78735
1421.35198	0.78821
1419.42342	0.79061
1417.49486	0.79350
1415.56629	0.79415
1413.63773	0.79367
1411.70916	0.79349
1409.78060	0.79436
1407.85203	0.79613
1405.92347	0.79883
1403.99490	0.80206
1402.06634	0.80452
1400.13778	0.80663
1398.20921	0.80867
1396.28065	0.81047
1394.35208	0.81286
1392.42352	0.81547
1390.49495	0.81837
1388.56639	0.82426
1386.63782	0.83452
1384.70926	0.84483
1382.78070	0.85333
1380.85213	0.85997
1378.92357	0.86272
1376.99500	0.86027
1375.06644	0.85209
1373.13787	0.83935
1371.20931	0.82566
1369.28074	0.81049
1367.35218	0.79386
1365.42362	0.77857
1363.49505	0.76431
1361.56649	0.75203
1359.63792	0.74411
1357.70936	0.73924
1355.78079	0.73623
1353.85223	0.73459
1351.92366	0.73365
1349.99510	0.73310
1348.06654	0.73302
1346.13797	0.73337
1344.20941	0.73391
1342.28084	0.73461
1340.35228	0.73610
1338.42371	0.73864
1336.49515	0.74202
1334.56659	0.74664
1332.63802	0.75255
1330.70946	0.75899
1328.78089	0.76479
1326.85233	0.76922
1324.92376	0.77219
1322.99520	0.77415
1321.06663	0.77609
1319.13807	0.77861
1317.20951	0.78118
1315.28094	0.78316
1313.35238	0.78491
1311.42381	0.78656
1309.49525	0.78759
1307.56668	0.78775
1305.63812	0.78706
1303.70955	0.78563
1301.78099	0.78353
1299.85243	0.78058
1297.92386	0.77660
1295.99530	0.77233
1294.06673	0.76891
1292.13817	0.76676
1290.20960	0.76564
1288.28104	0.76523
1286.35247	0.76528
1284.42391	0.76538
1282.49535	0.76536
1280.56678	0.76568
1278.63822	0.76692
1276.70965	0.76911
1274.78109	0.77194
1272.85252	0.77554
1270.92396	0.78027
1268.99539	0.78573
1267.06683	0.79087
1265.13827	0.79509
1263.20970	0.79820
1261.28114	0.80010
1259.35257	0.80136
1257.42401	0.80291
1255.49544	0.80509
1253.56688	0.80752
1251.63831	0.80975
1249.70975	0.81179
1247.78119	0.81378
1245.85262	0.81566
1243.92406	0.81721
1241.99549	0.81810
1240.06693	0.81819
1238.13836	0.81766
1236.20980	0.81639
1234.28123	0.81400
1232.35267	0.81072
1230.42411	0.80637
1228.49554	0.80053
1226.56698	0.79379
1224.63841	0.78685
1222.70985	0.77966
1220.78128	0.77218
1218.85272	0.76513
1216.92415	0.75911
1214.99559	0.75459
1213.06703	0.75218
1211.13846	0.75183
1209.20990	0.75243
1207.28133	0.75235
1205.35277	0.75038
1203.42420	0.74619
1201.49564	0.74021
1199.56708	0.73296
1197.63851	0.72504
1195.70995	0.71767
1193.78138	0.71174
1191.85282	0.70725
1189.92425	0.70408
1187.99569	0.70204
1186.06712	0.70081
1184.13856	0.70052
1182.21000	0.70200
1180.28143	0.70580
1178.35287	0.71147
1176.42430	0.71833
1174.49574	0.72642
1172.56717	0.73589
1170.63861	0.74656
1168.71004	0.75865
1166.78148	0.77244
1164.85292	0.78722
1162.92435	0.80113
1160.99579	0.81176
1159.06722	0.81685
1157.13866	0.81525
1155.21009	0.80754
1153.28153	0.79546
1151.35296	0.78127
1149.42440	0.76718
1147.49584	0.75439
1145.56727	0.74367
1143.63871	0.73608
1141.71014	0.73195
1139.78158	0.73070
1137.85301	0.73192
1135.92445	0.73547
1133.99588	0.74133
1132.06732	0.74997
1130.13876	0.76169
1128.21019	0.77573
1126.28163	0.79056
1124.35306	0.80496
1122.42450	0.81826
1120.49593	0.82986
1118.56737	0.83906
1116.63880	0.84484
1114.71024	0.84664
1112.78168	0.84517
1110.85311	0.84167
1108.92455	0.83743
1106.99598	0.83336
1105.06742	0.82946
1103.13885	0.82603
1101.21029	0.82440
1099.28172	0.82551
1097.35316	0.82927
1095.42460	0.83584
1093.49603	0.84556
1091.56747	0.85775
1089.63890	0.87198
1087.71034	0.88919
1085.78177	0.90947
1083.85321	0.93072
1081.92464	0.95045
1079.99608	0.96616
1078.06752	0.97547
1076.13895	0.97746
1074.21039	0.97288
1072.28182	0.96338
1070.35326	0.95080
1068.42469	0.93703
1066.49613	0.92422
1064.56756	0.91315
1062.63900	0.90284
1060.71044	0.89305
1058.78187	0.88444
1056.85331	0.87682
1054.92474	0.86955
1052.99618	0.86290
1051.06761	0.85814
1049.13905	0.85653
1047.21049	0.85788
1045.28192	0.86129
1043.35336	0.86702
1041.42479	0.87493
1039.49623	0.88246
1037.56766	0.88758
1035.63910	0.89092
1033.71053	0.89301
1031.78197	0.89287
1029.85341	0.88993
1027.92484	0.88475
1025.99628	0.87786
1024.06771	0.86973
1022.13915	0.86117
1020.21058	0.85314
1018.28202	0.84634
1016.35345	0.83999
1014.42489	0.83191
1012.49633	0.82080
1010.56776	0.80683
1008.63920	0.79086
1006.71063	0.77417
1004.78207	0.75796
1002.85350	0.74283
1000.92494	0.72954
998.99637	0.71879
997.06781	0.71024
995.13925	0.70296
993.21068	0.69621
991.28212	0.68941
989.35355	0.68216
987.42499	0.67451
985.49642	0.66705
983.56786	0.66063
981.63929	0.65567
979.71073	0.65203
977.78217	0.64919
975.85360	0.64637
973.92504	0.64255
971.99647	0.63709
970.06791	0.63041
968.13934	0.62338
966.21078	0.61673
964.28221	0.61115
962.35365	0.60789
960.42509	0.60868
958.49652	0.61367
956.56796	0.62011
954.63939	0.62402
952.71083	0.62325
950.78226	0.61823
948.85370	0.61073
946.92513	0.60305
944.99657	0.59690
943.06801	0.59264
941.13944	0.58986
939.21088	0.58784
937.28231	0.58620
935.35375	0.58505
933.42518	0.58440
931.49662	0.58400
929.56805	0.58356
927.63949	0.58318
925.71093	0.58325
923.78236	0.58377
921.85380	0.58412
919.92523	0.58366
917.99667	0.58213
916.06810	0.57991
914.13954	0.57788
912.21098	0.57675
910.28241	0.57678
908.35385	0.57807
906.42528	0.58046
904.49672	0.58361
902.56815	0.58725
900.63959	0.59074
898.71102	0.59311
896.78246	0.59402
894.85390	0.59391
892.92533	0.59317
890.99677	0.59153
889.06820	0.58870
887.13964	0.58509
885.21107	0.58160
883.28251	0.57875
881.35394	0.57660
879.42538	0.57495
877.49682	0.57339
875.56825	0.57205
873.63969	0.57131
871.71112	0.57105
869.78256	0.57125
867.85399	0.57213
865.92543	0.57361
863.99686	0.57545
862.06830	0.57795
860.13974	0.58105
858.21117	0.58399
856.28261	0.58663
854.35404	0.58952
852.42548	0.59263
850.49691	0.59520
848.56835	0.59663
846.63978	0.59720
844.71122	0.59764
842.78266	0.59835
840.85409	0.59937
838.92553	0.60065
836.99696	0.60212
835.06840	0.60373
833.13983	0.60554
831.21127	0.60754
829.28270	0.60954
827.35414	0.61143
825.42558	0.61333
823.49701	0.61522
821.56845	0.61670
819.63988	0.61764
817.71132	0.61837
815.78275	0.61925
813.85419	0.62023
811.92562	0.62093
809.99706	0.62127
808.06850	0.62130
806.13993	0.62086
804.21137	0.62006
802.28280	0.61917
800.35424	0.61851
798.42567	0.61873
796.49711	0.62004
794.56854	0.62190
792.63998	0.62392
790.71142	0.62638
788.78285	0.62983
786.85429	0.63411
784.92572	0.63858
782.99716	0.64273
781.06859	0.64650
779.14003	0.65007
777.21147	0.65305
775.28290	0.65520
773.35434	0.65681
771.42577	0.65815
769.49721	0.65914
767.56864	0.65940
765.64008	0.65906
763.71151	0.65906
761.78295	0.65991
759.85439	0.66138
757.92582	0.66365
755.99726	0.66680
754.06869	0.67048
752.14013	0.67474
750.21156	0.67953
748.28300	0.68416
746.35443	0.68844
744.42587	0.69259
742.49731	0.69586
740.56874	0.69768
738.64018	0.69860
736.71161	0.69888
734.78305	0.69891
732.85448	0.69935
730.92592	0.69997
728.99735	0.70023
727.06879	0.70040
725.14023	0.70107
723.21166	0.70268
721.28310	0.70547
719.35453	0.70890
717.42597	0.71229
715.49740	0.71592
713.56884	0.72028
711.64027	0.72522
709.71171	0.72980
707.78315	0.73368
705.85458	0.73771
703.92602	0.74187
701.99745	0.74488
700.06889	0.74621
698.14032	0.74625
696.21176	0.74555
694.28319	0.74429
692.35463	0.74248
690.42607	0.74062
688.49750	0.73934
686.56894	0.73869
684.64037	0.73840
682.71181	0.73814
680.78324	0.73826
678.85468	0.73953
676.92611	0.74152
674.99755	0.74341
673.06899	0.74531
671.14042	0.74698
669.21186	0.74869
667.28329	0.75204
665.35473	0.75489
663.42616	0.75614
661.49760	0.75635
659.56903	0.75619
657.64047	0.75615
655.71191	0.75555
653.78334	0.75466
651.85478	0.75421
649.92621	0.75373
647.99765	0.75371
646.06908	0.75450
644.14052	0.75542
642.21195	0.75784
640.28339	0.76293
638.35483	0.76765
636.42626	0.77020
634.49770	0.77304
632.56913	0.77654
630.64057	0.77817
628.71200	0.77749
626.78344	0.77683
624.85488	0.77786
622.92631	0.77950
620.99775	0.78062
619.06918	0.78156
617.14062	0.78213
615.21205	0.78199
613.28349	0.78265
611.35492	0.78520
609.42636	0.78764
607.49780	0.78826
605.56923	0.78867
603.64067	0.79033
601.71210	0.79268
599.78354	0.79548
