3997.91406	0.91070
3995.98550	0.91194
3994.05693	0.91276
3992.12837	0.91285
3990.19980	0.91236
3988.27124	0.91241
3986.34268	0.91277
3984.41411	0.91279
3982.48555	0.91303
3980.55698	0.91300
3978.62842	0.91238
3976.69985	0.91291
3974.77129	0.91444
3972.84272	0.91439
3970.91416	0.91344
3968.98560	0.91399
3967.05703	0.91478
3965.12847	0.91420
3963.19990	0.91306
3961.27134	0.91219
3959.34277	0.91224
3957.41421	0.91262
3955.48564	0.91077
3953.55708	0.90759
3951.62852	0.90662
3949.69995	0.90704
3947.77139	0.90602
3945.84282	0.90454
3943.91426	0.90505
3941.98569	0.90770
3940.05713	0.90899
3938.12856	0.90722
3936.20000	0.90513
3934.27144	0.90631
3932.34287	0.91010
3930.41431	0.91068
3928.48574	0.90707
3926.55718	0.90436
3924.62861	0.90553
3922.70005	0.90773
3920.77148	0.90785
3918.84292	0.90737
3916.91436	0.90744
3914.98579	0.90651
3913.05723	0.90437
3911.12866	0.90264
3909.20010	0.90217
3907.27153	0.90406
3905.34297	0.91025
3903.41440	0.91681
3901.48584	0.91695
3899.55728	0.91220
3897.62871	0.90576
3895.70015	0.90063
3893.77158	0.89866
3891.84302	0.89971
3889.91445	0.89980
3887.98589	0.89869
3886.05733	0.89972
3884.12876	0.90032
3882.20020	0.89879
3880.27163	0.89936
3878.34307	0.89943
3876.41450	0.89802
3874.48594	0.89856
3872.55737	0.90012
3870.62881	0.90065
3868.70025	0.89880
3866.77168	0.89566
3864.84312	0.89597
3862.91455	0.89888
3860.98599	0.89917
3859.05742	0.89743
3857.12886	0.89630
3855.20029	0.89969
3853.27173	0.90553
3851.34317	0.90195
3849.41460	0.89689
3847.48604	0.89368
3845.55747	0.89228
3843.62891	0.89407
3841.70034	0.89806
3839.77178	0.90036
3837.84321	0.89900
3835.91465	0.89527
3833.98609	0.89237
3832.05752	0.89254
3830.12896	0.89352
3828.20039	0.89240
3826.27183	0.89028
3824.34326	0.88978
3822.41470	0.89408
3820.48613	0.90038
3818.55757	0.89875
3816.62901	0.89446
3814.70044	0.89180
3812.77188	0.88866
3810.84331	0.88566
3808.91475	0.88568
3806.98618	0.88903
3805.05762	0.89024
3803.12905	0.88978
3801.20049	0.89218
3799.27193	0.89436
3797.34336	0.89367
3795.41480	0.88986
3793.48623	0.88484
3791.55767	0.88105
3789.62910	0.87834
3787.70054	0.87696
3785.77197	0.87794
3783.84341	0.87987
3781.91485	0.88090
3779.98628	0.88066
3778.05772	0.87851
3776.12915	0.87632
3774.20059	0.87567
3772.27202	0.87642
3770.34346	0.87829
3768.41489	0.87880
3766.48633	0.87716
3764.55777	0.87662
3762.62920	0.87785
3760.70064	0.87971
3758.77207	0.87993
3756.84351	0.87636
3754.91494	0.87299
3752.98638	0.87519
3751.05781	0.88353
3749.12925	0.88428
3747.20069	0.87962
3745.27212	0.87748
3743.34356	0.87488
3741.41499	0.87176
3739.48643	0.87242
3737.55786	0.87747
3735.62930	0.88214
3733.70074	0.88001
3731.77217	0.87510
3729.84361	0.87086
3727.91504	0.86769
3725.98648	0.86665
3724.05791	0.86769
3722.12935	0.86820
3720.20078	0.86711
3718.27222	0.86518
3716.34366	0.86393
3714.41509	0.86551
3712.48653	0.87066
3710.55796	0.87292
3708.62940	0.86882
3706.70083	0.86575
3704.77227	0.86626
3702.84370	0.86896
3700.91514	0.87141
3698.98658	0.87195
3697.05801	0.87155
3695.12945	0.87186
3693.20088	0.87325
3691.27232	0.87617
3689.34375	0.87827
3687.41519	0.87485
3685.48662	0.87095
3683.55806	0.86981
3681.62950	0.87111
3679.70093	0.87329
3677.77237	0.87480
3675.84380	0.87685
3673.91524	0.88067
3671.98667	0.88623
3670.05811	0.89197
3668.12954	0.89110
3666.20098	0.88931
3664.27242	0.89146
3662.34385	0.89584
3660.41529	0.90004
3658.48672	0.90367
3656.55816	0.90770
3654.62959	0.91247
3652.70103	0.92008
3650.77246	0.93550
3648.84390	0.94805
3646.91534	0.94148
3644.98677	0.93636
3643.05821	0.93764
3641.12964	0.94225
3639.20108	0.94744
3637.27251	0.95330
3635.34395	0.96005
3633.41538	0.96557
3631.48682	0.96993
3629.55826	0.97630
3627.62969	0.98123
3625.70113	0.98352
3623.77256	0.98770
3621.84400	0.99467
3619.91543	1.00295
3617.98687	1.00879
3616.05830	1.01461
3614.12974	1.02351
3612.20118	1.03133
3610.27261	1.03573
3608.34405	1.04076
3606.41548	1.04769
3604.48692	1.05456
3602.55835	1.06157
3600.62979	1.06779
3598.70123	1.07309
3596.77266	1.07983
3594.84410	1.08687
3592.91553	1.09116
3590.98697	1.09464
3589.05840	1.10198
3587.12984	1.11239
3585.20127	1.12006
3583.27271	1.12549
3581.34415	1.12794
3579.41558	1.12803
3577.48702	1.13066
3575.55845	1.13775
3573.62989	1.14670
3571.70132	1.15577
3569.77276	1.16629
3567.84419	1.17854
3565.91563	1.18664
3563.98707	1.19075
3562.05850	1.19504
3560.12994	1.19803
3558.20137	1.19968
3556.27281	1.20232
3554.34424	1.20704
3552.41568	1.21363
3550.48711	1.22259
3548.55855	1.23483
3546.62999	1.24703
3544.70142	1.25395
3542.77286	1.25704
3540.84429	1.26035
3538.91573	1.26620
3536.98716	1.27381
3535.05860	1.27935
3533.13003	1.28319
3531.20147	1.28950
3529.27291	1.29795
3527.34434	1.30567
3525.41578	1.31181
3523.48721	1.31498
3521.55865	1.31589
3519.63008	1.31731
3517.70152	1.32071
3515.77295	1.32710
3513.84439	1.33531
3511.91583	1.34278
3509.98726	1.35027
3508.05870	1.35978
3506.13013	1.37064
3504.20157	1.38227
3502.27300	1.39185
3500.34444	1.39618
3498.41587	1.39727
3496.48731	1.40002
3494.55875	1.40914
3492.63018	1.42247
3490.70162	1.43281
3488.77305	1.43695
3486.84449	1.43629
3484.91592	1.43470
3482.98736	1.43731
3481.05879	1.44087
3479.13023	1.44046
3477.20167	1.44311
3475.27310	1.44872
3473.34454	1.44922
3471.41597	1.44935
3469.48741	1.45689
3467.55884	1.46729
3465.63028	1.47210
3463.70171	1.47165
3461.77315	1.47010
3459.84459	1.47049
3457.91602	1.47605
3455.98746	1.48413
3454.05889	1.48862
3452.13033	1.49157
3450.20176	1.49623
3448.27320	1.49696
3446.34464	1.49331
3444.41607	1.49238
3442.48751	1.49437
3440.55894	1.49945
3438.63038	1.50597
3436.70181	1.50980
3434.77325	1.51256
3432.84468	1.51254
3430.91612	1.50756
3428.98756	1.50268
3427.05899	1.50036
3425.13043	1.50067
3423.20186	1.50560
3421.27330	1.51428
3419.34473	1.51987
3417.41617	1.51799
3415.48760	1.51252
3413.55904	1.50935
3411.63048	1.51174
3409.70191	1.51716
3407.77335	1.52160
3405.84478	1.52668
3403.91622	1.53332
3401.98765	1.53769
3400.05909	1.53941
3398.13052	1.54057
3396.20196	1.53981
3394.27340	1.53823
3392.34483	1.53888
3390.41627	1.54034
3388.48770	1.53900
3386.55914	1.53457
3384.63057	1.53055
3382.70201	1.52950
3380.77344	1.53505
3378.84488	1.54668
3376.91632	1.55354
3374.98775	1.55304
3373.05919	1.55278
3371.13062	1.55258
3369.20206	1.55119
3367.27349	1.55346
3365.34493	1.55871
3363.41636	1.56063
3361.48780	1.56087
3359.55924	1.56519
3357.63067	1.57088
3355.70211	1.57110
3353.77354	1.56647
3351.84498	1.56247
3349.91641	1.56146
3347.98785	1.56201
3346.05928	1.56427
3344.13072	1.57295
3342.20216	1.58695
3340.27359	1.59499
3338.34503	1.59227
3336.41646	1.58871
3334.48790	1.59070
3332.55933	1.59074
3330.63077	1.58724
3328.70220	1.59111
3326.77364	1.60572
3324.84508	1.61887
3322.91651	1.62124
3320.98795	1.61979
3319.05938	1.61900
3317.13082	1.61374
3315.20225	1.60477
3313.27369	1.60093
3311.34513	1.60713
3309.41656	1.61467
3307.48800	1.61450
3305.55943	1.61384
3303.63087	1.62013
3301.70230	1.62710
3299.77374	1.62555
3297.84517	1.61714
3295.91661	1.61293
3293.98805	1.61838
3292.05948	1.62482
3290.13092	1.62637
3288.20235	1.63034
3286.27379	1.63583
3284.34522	1.63421
3282.41666	1.62745
3280.48809	1.62102
3278.55953	1.61684
3276.63097	1.61729
3274.70240	1.62045
3272.77384	1.61695
3270.84527	1.60605
3268.91671	1.59970
3266.98814	1.60135
3265.05958	1.60358
3263.13101	1.60040
3261.20245	1.59305
3259.27389	1.58864
3257.34532	1.58505
3255.41676	1.57478
3253.48819	1.56478
3251.55963	1.56219
3249.63106	1.55811
3247.70250	1.54682
3245.77393	1.53695
3243.84537	1.53214
3241.91681	1.52890
3239.98824	1.52647
3238.05968	1.52136
3236.13111	1.51405
3234.20255	1.51036
3232.27398	1.50842
3230.34542	1.50365
3228.41685	1.49802
3226.48829	1.49542
3224.55973	1.49481
3222.63116	1.49370
3220.70260	1.49006
3218.77403	1.48355
3216.84547	1.47799
3214.91690	1.47181
3212.98834	1.46372
3211.05977	1.45857
3209.13121	1.45400
3207.20265	1.44829
3205.27408	1.44697
3203.34552	1.44882
3201.41695	1.44753
3199.48839	1.44289
3197.55982	1.43792
3195.63126	1.43275
3193.70269	1.42726
3191.77413	1.42293
3189.84557	1.42033
3187.91700	1.41848
3185.98844	1.41563
3184.05987	1.41087
3182.13131	1.40585
3180.20274	1.40244
3178.27418	1.39971
3176.34562	1.39517
3174.41705	1.38887
3172.48849	1.38295
3170.55992	1.37815
3168.63136	1.37531
3166.70279	1.37304
3164.77423	1.36715
3162.84566	1.35961
3160.91710	1.35436
3158.98854	1.35018
3157.05997	1.34673
3155.13141	1.34299
3153.20284	1.33802
3151.27428	1.33550
3149.34571	1.33390
3147.41715	1.32856
3145.48858	1.32331
3143.56002	1.32179
3141.63146	1.32232
3139.70289	1.32372
3137.77433	1.32372
3135.84576	1.32012
3133.91720	1.31498
3131.98863	1.31224
3130.06007	1.31255
3128.13150	1.31344
3126.20294	1.31362
3124.27438	1.31264
3122.34581	1.31069
3120.41725	1.30947
3118.48868	1.30946
3116.56012	1.30971
3114.63155	1.30826
3112.70299	1.30464
3110.77442	1.30171
3108.84586	1.30010
3106.91730	1.29878
3104.98873	1.29824
3103.06017	1.29718
3101.13160	1.29404
3099.20304	1.28931
3097.27447	1.28577
3095.34591	1.28691
3093.41734	1.28995
3091.48878	1.29044
3089.56022	1.29025
3087.63165	1.29095
3085.70309	1.29160
3083.77452	1.29164
3081.84596	1.28934
3079.91739	1.28492
3077.98883	1.28213
3076.06026	1.28064
3074.13170	1.27669
3072.20314	1.27171
3070.27457	1.26878
3068.34601	1.26642
3066.41744	1.26295
3064.48888	1.25871
3062.56031	1.25404
3060.63175	1.24982
3058.70318	1.24726
3056.77462	1.24557
3054.84606	1.24227
3052.91749	1.23691
3050.98893	1.23088
3049.06036	1.22514
3047.13180	1.22080
3045.20323	1.21834
3043.27467	1.21566
3041.34610	1.21100
3039.41754	1.20582
3037.48898	1.20128
3035.56041	1.19721
3033.63185	1.19433
3031.70328	1.19248
3029.77472	1.19045
3027.84615	1.18750
3025.91759	1.18299
3023.98903	1.17765
3022.06046	1.17345
3020.13190	1.17086
3018.20333	1.16892
3016.27477	1.16661
3014.34620	1.16359
3012.41764	1.16092
3010.48907	1.15900
3008.56051	1.15667
3006.63195	1.15384
3004.70338	1.15102
3002.77482	1.14813
3000.84625	1.14605
2998.91769	1.14543
2996.98912	1.14594
2995.06056	1.14757
2993.13199	1.15010
2991.20343	1.15321
2989.27487	1.15741
2987.34630	1.16273
2985.41774	1.16831
2983.48917	1.17366
2981.56061	1.17890
2979.63204	1.18407
2977.70348	1.19003
2975.77491	1.19728
2973.84635	1.20365
2971.91779	1.20797
2969.98922	1.21233
2968.06066	1.21810
2966.13209	1.22486
2964.20353	1.23166
2962.27496	1.23631
2960.34640	1.23633
2958.41783	1.23221
2956.48927	1.22661
2954.56071	1.22136
2952.63214	1.21722
2950.70358	1.21456
2948.77501	1.21352
2946.84645	1.21366
2944.91788	1.21506
2942.98932	1.21861
2941.06075	1.22415
2939.13219	1.23082
2937.20363	1.23831
2935.27506	1.24657
2933.34650	1.25480
2931.41793	1.26220
2929.48937	1.26854
2927.56080	1.27327
2925.63224	1.27691
2923.70367	1.28110
2921.77511	1.28462
2919.84655	1.28426
2917.91798	1.27882
2915.98942	1.26789
2914.06085	1.25088
2912.13229	1.23094
2910.20372	1.21344
2908.27516	1.20000
2906.34659	1.18886
2904.41803	1.17919
2902.48947	1.17077
2900.56090	1.16270
2898.63234	1.15550
2896.70377	1.15063
2894.77521	1.14764
2892.84664	1.14506
2890.91808	1.14235
2888.98952	1.13902
2887.06095	1.13487
2885.13239	1.13118
2883.20382	1.12928
2881.27526	1.12925
2879.34669	1.13044
2877.41813	1.13144
2875.48956	1.13087
2873.56100	1.12831
2871.63244	1.12409
2869.70387	1.11847
2867.77531	1.11201
2865.84674	1.10598
2863.91818	1.10129
2861.98961	1.09800
2860.06105	1.09664
2858.13248	1.09890
2856.20392	1.10467
2854.27536	1.11107
2852.34679	1.11556
2850.41823	1.11479
2848.48966	1.10382
2846.56110	1.08351
2844.63253	1.06179
2842.70397	1.04412
2840.77540	1.03052
2838.84684	1.02015
2836.91828	1.01223
2834.98971	1.00548
2833.06115	0.99950
2831.13258	0.99441
2829.20402	0.98968
2827.27545	0.98477
2825.34689	0.97985
2823.41832	0.97543
2821.48976	0.97143
2819.56120	0.96733
2817.63263	0.96313
2815.70407	0.95907
2813.77550	0.95514
2811.84694	0.95199
2809.91837	0.94974
2807.98981	0.94702
2806.06124	0.94349
2804.13268	0.93990
2802.20412	0.93646
2800.27555	0.93361
2798.34699	0.93182
2796.41842	0.93043
2794.48986	0.92808
2792.56129	0.92418
2790.63273	0.91979
2788.70416	0.91618
2786.77560	0.91321
2784.84704	0.91022
2782.91847	0.90715
2780.98991	0.90394
2779.06134	0.90057
2777.13278	0.89735
2775.20421	0.89442
2773.27565	0.89181
2771.34708	0.88952
2769.41852	0.88793
2767.48996	0.88682
2765.56139	0.88493
2763.63283	0.88245
2761.70426	0.88014
2759.77570	0.87778
2757.84713	0.87537
2755.91857	0.87271
2753.99001	0.86945
2752.06144	0.86646
2750.13288	0.86492
2748.20431	0.86407
2746.27575	0.86232
2744.34718	0.85954
2742.41862	0.85660
2740.49005	0.85398
2738.56149	0.85180
2736.63293	0.85027
2734.70436	0.84909
2732.77580	0.84718
2730.84723	0.84403
2728.91867	0.84087
2726.99010	0.83916
2725.06154	0.83814
2723.13297	0.83641
2721.20441	0.83404
2719.27585	0.83153
2717.34728	0.82918
2715.41872	0.82693
2713.49015	0.82428
2711.56159	0.82121
2709.63302	0.81829
2707.70446	0.81597
2705.77589	0.81399
2703.84733	0.81169
2701.91877	0.80930
2699.99020	0.80789
2698.06164	0.80715
2696.13307	0.80572
2694.20451	0.80369
2692.27594	0.80192
2690.34738	0.80056
2688.41881	0.79971
2686.49025	0.79902
2684.56169	0.79743
2682.63312	0.79509
2680.70456	0.79290
2678.77599	0.79067
2676.84743	0.78818
2674.91886	0.78594
2672.99030	0.78412
2671.06173	0.78232
2669.13317	0.78019
2667.20461	0.77816
2665.27604	0.77663
2663.34748	0.77543
2661.41891	0.77432
2659.49035	0.77313
2657.56178	0.77162
2655.63322	0.77012
2653.70465	0.76922
2651.77609	0.76840
2649.84753	0.76691
2647.91896	0.76496
2645.99040	0.76298
2644.06183	0.76135
2642.13327	0.76027
2640.20470	0.75929
2638.27614	0.75800
2636.34757	0.75649
2634.41901	0.75485
2632.49045	0.75308
2630.56188	0.75133
2628.63332	0.74970
2626.70475	0.74805
2624.77619	0.74627
2622.84762	0.74467
2620.91906	0.74349
2618.99049	0.74232
2617.06193	0.74116
2615.13337	0.74037
2613.20480	0.73961
2611.27624	0.73846
2609.34767	0.73703
2607.41911	0.73564
2605.49054	0.73426
2603.56198	0.73285
2601.63342	0.73142
2599.70485	0.73006
2597.77629	0.72901
2595.84772	0.72808
2593.91916	0.72683
2591.99059	0.72526
2590.06203	0.72360
2588.13346	0.72186
2586.20490	0.72022
2584.27634	0.71898
2582.34777	0.71798
2580.41921	0.71703
2578.49064	0.71609
2576.56208	0.71508
2574.63351	0.71399
2572.70495	0.71268
2570.77638	0.71118
2568.84782	0.70980
2566.91926	0.70866
2564.99069	0.70784
2563.06213	0.70722
2561.13356	0.70620
2559.20500	0.70467
2557.27643	0.70330
2555.34787	0.70221
2553.41930	0.70095
2551.49074	0.69958
2549.56218	0.69835
2547.63361	0.69707
2545.70505	0.69550
2543.77648	0.69383
2541.84792	0.69253
2539.91935	0.69152
2537.99079	0.69043
2536.06222	0.68927
2534.13366	0.68826
2532.20510	0.68763
2530.27653	0.68718
2528.34797	0.68631
2526.41940	0.68534
2524.49084	0.68471
2522.56227	0.68370
2520.63371	0.68217
2518.70514	0.68078
2516.77658	0.67961
2514.84802	0.67865
2512.91945	0.67781
2510.99089	0.67672
2509.06232	0.67548
2507.13376	0.67430
2505.20519	0.67306
2503.27663	0.67173
2501.34806	0.67063
2499.41950	0.66981
2497.49094	0.66893
2495.56237	0.66784
2493.63381	0.66683
2491.70524	0.66626
2489.77668	0.66595
2487.84811	0.66545
2485.91955	0.66478
2483.99098	0.66397
2482.06242	0.66290
2480.13386	0.66166
2478.20529	0.66026
2476.27673	0.65863
2474.34816	0.65698
2472.41960	0.65531
2470.49103	0.65345
2468.56247	0.65183
2466.63391	0.65067
2464.70534	0.64948
2462.77678	0.64821
2460.84821	0.64732
2458.91965	0.64683
2456.99108	0.64640
2455.06252	0.64594
2453.13395	0.64531
2451.20539	0.64457
2449.27683	0.64387
2447.34826	0.64300
2445.41970	0.64196
2443.49113	0.64087
2441.56257	0.63937
2439.63400	0.63733
2437.70544	0.63549
2435.77687	0.63424
2433.84831	0.63313
2431.91975	0.63189
2429.99118	0.63059
2428.06262	0.62928
2426.13405	0.62829
2424.20549	0.62764
2422.27692	0.62701
2420.34836	0.62630
2418.41979	0.62541
2416.49123	0.62435
2414.56267	0.62337
2412.63410	0.62251
2410.70554	0.62155
2408.77697	0.62034
2406.84841	0.61910
2404.91984	0.61790
2402.99128	0.61663
2401.06271	0.61551
2399.13415	0.61459
2397.20559	0.61366
2395.27702	0.61268
2393.34846	0.61179
2391.41989	0.61091
2389.49133	0.61002
2387.56276	0.60919
2385.63420	0.60816
2383.70563	0.60693
2381.77707	0.60604
2379.84851	0.60544
2377.91994	0.60450
2375.99138	0.60337
2374.06281	0.60235
2372.13425	0.60079
2370.20568	0.59876
2368.27712	0.59815
2366.34855	0.59936
2364.41999	0.59967
2362.49143	0.59720
2360.56286	0.59317
2358.63430	0.59003
2356.70573	0.58879
2354.77717	0.58887
2352.84860	0.58981
2350.92004	0.59049
2348.99147	0.58998
2347.06291	0.58843
2345.13435	0.58667
2343.20578	0.58590
2341.27722	0.58533
2339.34865	0.58363
2337.42009	0.58143
2335.49152	0.58024
2333.56296	0.58015
2331.63440	0.57984
2329.70583	0.57899
2327.77727	0.57777
2325.84870	0.57617
2323.92014	0.57451
2321.99157	0.57325
2320.06301	0.57279
2318.13444	0.57254
2316.20588	0.57178
2314.27732	0.57075
2312.34875	0.56971
2310.42019	0.56893
2308.49162	0.56853
2306.56306	0.56823
2304.63449	0.56772
2302.70593	0.56660
2300.77736	0.56492
2298.84880	0.56337
2296.92024	0.56223
2294.99167	0.56109
2293.06311	0.55982
2291.13454	0.55857
2289.20598	0.55750
2287.27741	0.55665
2285.34885	0.55583
2283.42028	0.55488
2281.49172	0.55395
2279.56316	0.55314
2277.63459	0.55223
2275.70603	0.55109
2273.77746	0.54994
2271.84890	0.54917
2269.92033	0.54860
2267.99177	0.54777
2266.06320	0.54678
2264.13464	0.54583
2262.20608	0.54475
2260.27751	0.54351
2258.34895	0.54235
2256.42038	0.54148
2254.49182	0.54096
2252.56325	0.54056
2250.63469	0.53996
2248.70612	0.53928
2246.77756	0.53886
2244.84900	0.53848
2242.92043	0.53772
2240.99187	0.53670
2239.06330	0.53576
2237.13474	0.53485
2235.20617	0.53370
2233.27761	0.53219
2231.34904	0.53040
2229.42048	0.52851
2227.49192	0.52672
2225.56335	0.52521
2223.63479	0.52385
2221.70622	0.52246
2219.77766	0.52124
2217.84909	0.52039
2215.92053	0.51971
2213.99196	0.51908
2212.06340	0.51865
2210.13484	0.51843
2208.20627	0.51812
2206.27771	0.51762
2204.34914	0.51713
2202.42058	0.51667
2200.49201	0.51606
2198.56345	0.51523
2196.63488	0.51434
2194.70632	0.51343
2192.77776	0.51222
2190.84919	0.51067
2188.92063	0.50904
2186.99206	0.50755
2185.06350	0.50625
2183.13493	0.50508
2181.20637	0.50395
2179.27781	0.50280
2177.34924	0.50168
2175.42068	0.50063
2173.49211	0.49967
2171.56355	0.49896
2169.63498	0.49853
2167.70642	0.49809
2165.77785	0.49739
2163.84929	0.49661
2161.92073	0.49589
2159.99216	0.49507
2158.06360	0.49414
2156.13503	0.49328
2154.20647	0.49250
2152.27790	0.49172
2150.34934	0.49090
2148.42077	0.49027
2146.49221	0.48979
2144.56365	0.48922
2142.63508	0.48855
2140.70652	0.48781
2138.77795	0.48688
2136.84939	0.48582
2134.92082	0.48481
2132.99226	0.48373
2131.06369	0.48239
2129.13513	0.48093
2127.20657	0.47947
2125.27800	0.47793
2123.34944	0.47633
2121.42087	0.47481
2119.49231	0.47355
2117.56374	0.47252
2115.63518	0.47160
2113.70661	0.47081
2111.77805	0.47021
2109.84949	0.46981
2107.92092	0.46948
2105.99236	0.46893
2104.06379	0.46817
2102.13523	0.46750
2100.20666	0.46693
2098.27810	0.46628
2096.34953	0.46545
2094.42097	0.46437
2092.49241	0.46308
2090.56384	0.46174
2088.63528	0.46044
2086.70671	0.45917
2084.77815	0.45778
2082.84958	0.45628
2080.92102	0.45479
2078.99245	0.45337
2077.06389	0.45212
2075.13533	0.45106
2073.20676	0.45011
2071.27820	0.44914
2069.34963	0.44824
2067.42107	0.44746
2065.49250	0.44660
2063.56394	0.44569
2061.63537	0.44491
2059.70681	0.44411
2057.77825	0.44313
2055.84968	0.44228
2053.92112	0.44167
2051.99255	0.44103
2050.06399	0.44025
2048.13542	0.43944
2046.20686	0.43855
2044.27830	0.43741
2042.34973	0.43614
2040.42117	0.43503
2038.49260	0.43396
2036.56404	0.43272
2034.63547	0.43150
2032.70691	0.43050
2030.77834	0.42946
2028.84978	0.42811
2026.92122	0.42665
2024.99265	0.42533
2023.06409	0.42410
2021.13552	0.42292
2019.20696	0.42181
2017.27839	0.42067
2015.34983	0.41952
2013.42126	0.41858
2011.49270	0.41783
2009.56414	0.41714
2007.63557	0.41648
2005.70701	0.41576
2003.77844	0.41486
2001.84988	0.41397
1999.92131	0.41336
1997.99275	0.41287
1996.06418	0.41223
1994.13562	0.41136
1992.20706	0.41030
1990.27849	0.40929
1988.34993	0.40840
1986.42136	0.40751
1984.49280	0.40654
1982.56423	0.40547
1980.63567	0.40428
1978.70710	0.40310
1976.77854	0.40212
1974.84998	0.40126
1972.92141	0.40039
1970.99285	0.39961
1969.06428	0.39910
1967.13572	0.39871
1965.20715	0.39814
1963.27859	0.39752
1961.35002	0.39701
1959.42146	0.39649
1957.49290	0.39596
1955.56433	0.39537
1953.63577	0.39467
1951.70720	0.39391
1949.77864	0.39315
1947.85007	0.39243
1945.92151	0.39183
1943.99294	0.39134
1942.06438	0.39084
1940.13582	0.39023
1938.20725	0.38959
1936.27869	0.38905
1934.35012	0.38857
1932.42156	0.38804
1930.49299	0.38747
1928.56443	0.38703
1926.63586	0.38667
1924.70730	0.38629
1922.77874	0.38588
1920.85017	0.38542
1918.92161	0.38502
1916.99304	0.38469
1915.06448	0.38429
1913.13591	0.38386
1911.20735	0.38353
1909.27878	0.38336
1907.35022	0.38312
1905.42166	0.38269
1903.49309	0.38240
1901.56453	0.38236
1899.63596	0.38232
1897.70740	0.38217
1895.77883	0.38200
1893.85027	0.38171
1891.92171	0.38132
1889.99314	0.38115
1888.06458	0.38108
1886.13601	0.38074
1884.20745	0.38016
1882.27888	0.37951
1880.35032	0.37902
1878.42175	0.37872
1876.49319	0.37841
1874.56463	0.37798
1872.63606	0.37759
1870.70750	0.37759
1868.77893	0.37826
1866.85037	0.37862
1864.92180	0.37809
1862.99324	0.37745
1861.06467	0.37721
1859.13611	0.37726
1857.20755	0.37727
1855.27898	0.37710
1853.35042	0.37683
1851.42185	0.37649
1849.49329	0.37613
1847.56472	0.37585
1845.63616	0.37608
1843.70759	0.37689
1841.77903	0.37723
1839.85047	0.37715
1837.92190	0.37733
1835.99334	0.37761
1834.06477	0.37754
1832.13621	0.37743
1830.20764	0.37796
1828.27908	0.37873
1826.35051	0.37905
1824.42195	0.37933
1822.49339	0.37950
1820.56482	0.37947
1818.63626	0.37955
1816.70769	0.37966
1814.77913	0.37968
1812.85056	0.37973
1810.92200	0.37996
1808.99343	0.38021
1807.06487	0.38036
1805.13631	0.38056
1803.20774	0.38082
1801.27918	0.38126
1799.35061	0.38175
1797.42205	0.38205
1795.49348	0.38226
1793.56492	0.38307
1791.63635	0.38492
1789.70779	0.38615
1787.77923	0.38656
1785.85066	0.38718
1783.92210	0.38819
1781.99353	0.38931
1780.06497	0.39058
1778.13640	0.39169
1776.20784	0.39238
1774.27927	0.39330
1772.35071	0.39548
1770.42215	0.39800
1768.49358	0.39978
1766.56502	0.40122
1764.63645	0.40265
1762.70789	0.40496
1760.77932	0.40814
1758.85076	0.41094
1756.92220	0.41446
1754.99363	0.41821
1753.06507	0.42144
1751.13650	0.42642
1749.20794	0.43394
1747.27937	0.44088
1745.35081	0.44652
1743.42224	0.45159
1741.49368	0.45648
1739.56512	0.46158
1737.63655	0.46558
1735.70799	0.46886
1733.77942	0.47454
1731.85086	0.47974
1729.92229	0.48325
1727.99373	0.48710
1726.06516	0.49123
1724.13660	0.49624
1722.20804	0.50115
1720.27947	0.50524
1718.35091	0.51209
1716.42234	0.52538
1714.49378	0.53683
1712.56521	0.54529
1710.63665	0.55463
1708.70808	0.56607
1706.77952	0.58325
1704.85096	0.60630
1702.92239	0.62762
1700.99383	0.65774
1699.06526	0.70497
1697.13670	0.74979
1695.20813	0.79445
1693.27957	0.82744
1691.35100	0.85326
1689.42244	0.88430
1687.49388	0.91285
1685.56531	0.94144
1683.63675	0.98651
1681.70818	1.01871
1679.77962	1.03571
1677.85105	1.05108
1675.92249	1.06975
1673.99392	1.08980
1672.06536	1.10492
1670.13680	1.12209
1668.20823	1.14140
1666.27967	1.15149
1664.35110	1.15996
1662.42254	1.17256
1660.49397	1.18223
1658.56541	1.18631
1656.63684	1.18760
1654.70828	1.18998
1652.77972	1.19657
1650.85115	1.19789
1648.92259	1.19621
1646.99402	1.19447
1645.06546	1.19145
1643.13689	1.18784
1641.20833	1.18518
1639.27976	1.18267
1637.35120	1.18130
1635.42264	1.18045
1633.49407	1.17530
1631.56551	1.16866
1629.63694	1.16132
1627.70838	1.15327
1625.77981	1.14362
1623.85125	1.12967
1621.92269	1.11242
1619.99412	1.09691
1618.06556	1.07829
1616.13699	1.04976
1614.20843	1.02405
1612.27986	1.00362
1610.35130	0.98332
1608.42273	0.96351
1606.49417	0.94696
1604.56561	0.93449
1602.63704	0.92531
1600.70848	0.91906
1598.77991	0.91495
1596.85135	0.91228
1594.92278	0.91096
1592.99422	0.91106
1591.06565	0.91257
1589.13709	0.91567
1587.20853	0.92076
1585.27996	0.92787
1583.35140	0.93649
1581.42283	0.94545
1579.49427	0.95371
1577.56570	0.96476
1575.63714	0.98189
1573.70857	0.99301
1571.78001	0.99956
1569.85145	1.01120
1567.92288	1.02462
1565.99432	1.03452
1564.06575	1.04454
1562.13719	1.05274
1560.20862	1.06284
1558.28006	1.08585
1556.35149	1.09779
1554.42293	1.10251
1552.49437	1.10570
1550.56580	1.10719
1548.63724	1.10797
1546.70867	1.10846
1544.78011	1.10843
1542.85154	1.10612
1540.92298	1.10128
1538.99441	1.09443
1537.06585	1.08695
1535.13729	1.07880
1533.20872	1.07077
1531.28016	1.06410
1529.35159	1.05750
1527.42303	1.04979
1525.49446	1.04180
1523.56590	1.03625
1521.63733	1.03457
1519.70877	1.03442
1517.78021	1.03035
1515.85164	1.02159
1513.92308	1.00986
1511.99451	0.99580
1510.06595	0.98079
1508.13738	0.96003
1506.20882	0.92786
1504.28025	0.90888
1502.35169	0.89542
1500.42313	0.87999
1498.49456	0.86065
1496.56600	0.83798
1494.63743	0.81974
1492.70887	0.80656
1490.78030	0.79229
1488.85174	0.77582
1486.92317	0.76397
1484.99461	0.75633
1483.06605	0.75137
1481.13748	0.74932
1479.20892	0.75023
1477.28035	0.75436
1475.35179	0.76302
1473.42322	0.77924
1471.49466	0.79739
1469.56610	0.80682
1467.63753	0.81248
1465.70897	0.82005
1463.78040	0.82858
1461.85184	0.83292
1459.92327	0.83491
1457.99471	0.84155
1456.06614	0.85205
1454.13758	0.85409
1452.20902	0.85252
1450.28045	0.85071
1448.35189	0.84901
1446.42332	0.84660
1444.49476	0.84320
1442.56619	0.83919
1440.63763	0.83466
1438.70906	0.82932
1436.78050	0.82248
1434.85194	0.81511
1432.92337	0.80852
1430.99481	0.80250
1429.06624	0.79775
1427.13768	0.79483
1425.20911	0.79351
1423.28055	0.79361
1421.35198	0.79440
1419.42342	0.79637
1417.49486	0.79896
1415.56629	0.79991
1413.63773	0.79994
1411.70916	0.79986
1409.78060	0.80017
1407.85203	0.80127
1405.92347	0.80378
1403.99490	0.80719
1402.06634	0.80954
1400.13778	0.81106
1398.20921	0.81221
1396.28065	0.81291
1394.35208	0.81378
1392.42352	0.81452
1390.49495	0.81533
1388.56639	0.81835
1386.63782	0.82444
1384.70926	0.83012
1382.78070	0.83422
1380.85213	0.83712
1378.92357	0.83748
1376.99500	0.83401
1375.06644	0.82637
1373.13787	0.81601
1371.20931	0.80552
1369.28074	0.79399
1367.35218	0.78096
1365.42362	0.76850
1363.49505	0.75701
1361.56649	0.74749
1359.63792	0.74131
1357.70936	0.73741
1355.78079	0.73491
1353.85223	0.73339
1351.92366	0.73238
1349.99510	0.73183
1348.06654	0.73172
1346.13797	0.73184
1344.20941	0.73234
1342.28084	0.73345
1340.35228	0.73572
1338.42371	0.73933
1336.49515	0.74357
1334.56659	0.74853
1332.63802	0.75455
1330.70946	0.76105
1328.78089	0.76688
1326.85233	0.77123
1324.92376	0.77405
1322.99520	0.77587
1321.06663	0.77756
1319.13807	0.77950
1317.20951	0.78133
1315.28094	0.78290
1313.35238	0.78421
1311.42381	0.78477
1309.49525	0.78453
1307.56668	0.78409
1305.63812	0.78360
1303.70955	0.78288
1301.78099	0.78168
1299.85243	0.77968
1297.92386	0.77681
1295.99530	0.77363
1294.06673	0.77086
1292.13817	0.76892
1290.20960	0.76796
1288.28104	0.76756
1286.35247	0.76726
1284.42391	0.76710
1282.49535	0.76708
1280.56678	0.76719
1278.63822	0.76762
1276.70965	0.76869
1274.78109	0.77065
1272.85252	0.77350
1270.92396	0.77711
1268.99539	0.78137
1267.06683	0.78586
1265.13827	0.78948
1263.20970	0.79158
1261.28114	0.79270
1259.35257	0.79353
1257.42401	0.79438
1255.49544	0.79549
1253.56688	0.79686
1251.63831	0.79814
1249.70975	0.79916
1247.78119	0.80024
1245.85262	0.80149
1243.92406	0.80248
1241.99549	0.80299
1240.06693	0.80313
1238.13836	0.80284
1236.20980	0.80177
1234.28123	0.79960
1232.35267	0.79668
1230.42411	0.79321
1228.49554	0.78881
1226.56698	0.78337
1224.63841	0.77720
1222.70985	0.77079
1220.78128	0.76433
1218.85272	0.75798
1216.92415	0.75247
1214.99559	0.74825
1213.06703	0.74525
1211.13846	0.74374
1209.20990	0.74357
1207.28133	0.74311
1205.35277	0.74057
1203.42420	0.73573
1201.49564	0.72960
1199.56708	0.72298
1197.63851	0.71627
1195.70995	0.70989
1193.78138	0.70428
1191.85282	0.69980
1189.92425	0.69652
1187.99569	0.69408
1186.06712	0.69238
1184.13856	0.69185
1182.21000	0.69275
1180.28143	0.69510
1178.35287	0.69906
1176.42430	0.70467
1174.49574	0.71171
1172.56717	0.71956
1170.63861	0.72797
1168.71004	0.73759
1166.78148	0.74862
1164.85292	0.76027
1162.92435	0.77105
1160.99579	0.77871
1159.06722	0.78169
1157.13866	0.77980
1155.21009	0.77355
1153.28153	0.76422
1151.35296	0.75341
1149.42440	0.74222
1147.49584	0.73139
1145.56727	0.72199
1143.63871	0.71547
1141.71014	0.71252
1139.78158	0.71245
1137.85301	0.71469
1135.92445	0.71915
1133.99588	0.72555
1132.06732	0.73395
1130.13876	0.74424
1128.21019	0.75568
1126.28163	0.76755
1124.35306	0.77884
1122.42450	0.78845
1120.49593	0.79630
1118.56737	0.80260
1116.63880	0.80637
1114.71024	0.80648
1112.78168	0.80395
1110.85311	0.80086
1108.92455	0.79763
1106.99598	0.79385
1105.06742	0.79019
1103.13885	0.78764
1101.21029	0.78655
1099.28172	0.78737
1097.35316	0.79020
1095.42460	0.79492
1093.49603	0.80186
1091.56747	0.81099
1089.63890	0.82192
1087.71034	0.83451
1085.78177	0.84845
1083.85321	0.86283
1081.92464	0.87565
1079.99608	0.88470
1078.06752	0.88916
1076.13895	0.88890
1074.21039	0.88413
1072.28182	0.87589
1070.35326	0.86533
1068.42469	0.85389
1066.49613	0.84316
1064.56756	0.83353
1062.63900	0.82510
1060.71044	0.81833
1058.78187	0.81254
1056.85331	0.80685
1054.92474	0.80191
1052.99618	0.79831
1051.06761	0.79606
1049.13905	0.79539
1047.21049	0.79631
1045.28192	0.79874
1043.35336	0.80287
1041.42479	0.80838
1039.49623	0.81388
1037.56766	0.81789
1035.63910	0.82006
1033.71053	0.82091
1031.78197	0.82052
1029.85341	0.81823
1027.92484	0.81382
1025.99628	0.80759
1024.06771	0.80001
1022.13915	0.79196
1020.21058	0.78442
1018.28202	0.77790
1016.35345	0.77189
1014.42489	0.76494
1012.49633	0.75596
1010.56776	0.74477
1008.63920	0.73177
1006.71063	0.71790
1004.78207	0.70441
1002.85350	0.69203
1000.92494	0.68107
998.99637	0.67199
997.06781	0.66480
995.13925	0.65869
993.21068	0.65294
991.28212	0.64724
989.35355	0.64127
987.42499	0.63501
985.49642	0.62903
983.56786	0.62389
981.63929	0.61968
979.71073	0.61647
977.78217	0.61395
975.85360	0.61108
973.92504	0.60700
971.99647	0.60128
970.06791	0.59405
968.13934	0.58627
966.21078	0.57913
964.28221	0.57342
962.35365	0.57004
960.42509	0.57031
958.49652	0.57431
956.56796	0.57985
954.63939	0.58377
952.71083	0.58411
950.78226	0.58077
948.85370	0.57505
946.92513	0.56889
944.99657	0.56381
943.06801	0.56026
941.13944	0.55756
939.21088	0.55498
937.28231	0.55241
935.35375	0.54978
933.42518	0.54701
931.49662	0.54436
929.56805	0.54218
927.63949	0.54025
925.71093	0.53831
923.78236	0.53671
921.85380	0.53570
919.92523	0.53462
917.99667	0.53289
916.06810	0.53108
914.13954	0.52993
912.21098	0.52942
910.28241	0.52952
908.35385	0.53073
906.42528	0.53327
904.49672	0.53655
902.56815	0.53982
900.63959	0.54261
898.71102	0.54430
896.78246	0.54464
894.85390	0.54396
892.92533	0.54246
890.99677	0.54028
889.06820	0.53768
887.13964	0.53509
885.21107	0.53306
883.28251	0.53174
881.35394	0.53094
879.42538	0.53081
877.49682	0.53134
875.56825	0.53197
873.63969	0.53238
871.71112	0.53272
869.78256	0.53320
867.85399	0.53389
865.92543	0.53454
863.99686	0.53519
862.06830	0.53618
860.13974	0.53765
858.21117	0.53950
856.28261	0.54181
854.35404	0.54465
852.42548	0.54786
850.49691	0.55092
848.56835	0.55343
846.63978	0.55553
844.71122	0.55765
842.78266	0.55997
840.85409	0.56229
838.92553	0.56460
836.99696	0.56703
835.06840	0.56917
833.13983	0.57039
831.21127	0.57050
829.28270	0.57015
827.35414	0.56991
825.42558	0.56924
823.49701	0.56805
821.56845	0.56736
819.63988	0.56741
817.71132	0.56764
815.78275	0.56840
813.85419	0.56979
811.92562	0.57111
809.99706	0.57248
808.06850	0.57424
806.13993	0.57574
804.21137	0.57648
802.28280	0.57705
800.35424	0.57793
798.42567	0.57890
796.49711	0.57977
794.56854	0.58072
792.63998	0.58194
790.71142	0.58367
788.78285	0.58601
786.85429	0.58884
784.92572	0.59197
782.99716	0.59528
781.06859	0.59894
779.14003	0.60313
777.21147	0.60754
775.28290	0.61187
773.35434	0.61622
771.42577	0.62049
769.49721	0.62397
767.56864	0.62648
765.64008	0.62863
763.71151	0.63068
761.78295	0.63275
759.85439	0.63515
757.92582	0.63802
755.99726	0.64111
754.06869	0.64416
752.14013	0.64761
750.21156	0.65189
748.28300	0.65640
746.35443	0.66049
744.42587	0.66440
742.49731	0.66802
740.56874	0.67070
738.64018	0.67260
736.71161	0.67426
734.78305	0.67569
732.85448	0.67691
730.92592	0.67812
728.99735	0.67945
727.06879	0.68112
725.14023	0.68307
723.21166	0.68502
721.28310	0.68711
719.35453	0.68924
717.42597	0.69089
715.49740	0.69269
713.56884	0.69562
711.64027	0.69913
709.71171	0.70236
707.78315	0.70536
705.85458	0.70820
703.92602	0.71031
701.99745	0.71099
700.06889	0.71032
698.14032	0.70889
696.21176	0.70699
694.28319	0.70481
692.35463	0.70260
690.42607	0.70112
688.49750	0.70121
686.56894	0.70234
684.64037	0.70352
682.71181	0.70494
680.78324	0.70658
678.85468	0.70846
676.92611	0.71126
674.99755	0.71475
673.06899	0.71799
671.14042	0.72026
669.21186	0.72132
667.28329	0.72156
665.35473	0.72140
663.42616	0.72089
661.49760	0.72023
659.56903	0.71986
657.64047	0.71996
655.71191	0.71999
653.78334	0.72073
651.85478	0.72353
649.92621	0.72806
647.99765	0.73299
646.06908	0.73771
644.14052	0.74271
642.21195	0.74840
640.28339	0.75386
638.35483	0.75744
636.42626	0.75860
634.49770	0.75836
632.56913	0.75773
630.64057	0.75638
628.71200	0.75340
626.78344	0.74982
624.85488	0.74847
622.92631	0.75041
620.99775	0.75320
619.06918	0.75475
617.14062	0.75643
615.21205	0.75976
613.28349	0.76371
611.35492	0.76742
609.42636	0.77004
607.49780	0.77004
605.56923	0.76834
603.64067	0.76677
601.71210	0.76449
599.78354	0.76049
