3997.91406	1.03621
3995.98550	1.03518
3994.05693	1.03054
3992.12837	1.02760
3990.19980	1.02898
3988.27124	1.03066
3986.34268	1.03046
3984.41411	1.03006
3982.48555	1.03016
3980.55698	1.03070
3978.62842	1.03060
3976.69985	1.02847
3974.77129	1.02654
3972.84272	1.02732
3970.91416	1.02760
3968.98560	1.02577
3967.05703	1.02578
3965.12847	1.02745
3963.19990	1.02776
3961.27134	1.02681
3959.34277	1.02522
3957.41421	1.02334
3955.48564	1.02235
3953.55708	1.02363
3951.62852	1.02680
3949.69995	1.02821
3947.77139	1.02734
3945.84282	1.02789
3943.91426	1.02722
3941.98569	1.02250
3940.05713	1.01973
3938.12856	1.02084
3936.20000	1.02207
3934.27144	1.02167
3932.34287	1.01943
3930.41431	1.01720
3928.48574	1.01782
3926.55718	1.01899
3924.62861	1.01735
3922.70005	1.01584
3920.77148	1.01616
3918.84292	1.01514
3916.91436	1.01267
3914.98579	1.01178
3913.05723	1.01236
3911.12866	1.01211
3909.20010	1.01261
3907.27153	1.01645
3905.34297	1.01963
3903.41440	1.01597
3901.48584	1.00846
3899.55728	1.00351
3897.62871	1.00374
3895.70015	1.00751
3893.77158	1.01127
3891.84302	1.00974
3889.91445	1.00684
3887.98589	1.00830
3886.05733	1.00776
3884.12876	1.00422
3882.20020	1.00158
3880.27163	0.99651
3878.34307	0.99516
3876.41450	0.99781
3874.48594	0.99754
3872.55737	0.99609
3870.62881	0.99513
3868.70025	0.99332
3866.77168	0.99346
3864.84312	0.99269
3862.91455	0.99132
3860.98599	0.99239
3859.05742	0.99377
3857.12886	0.99598
3855.20029	0.99682
3853.27173	0.98345
3851.34317	0.97360
3849.41460	0.97757
3847.48604	0.98402
3845.55747	0.98714
3843.62891	0.98551
3841.70034	0.98322
3839.77178	0.98379
3837.84321	0.98302
3835.91465	0.97908
3833.98609	0.97504
3832.05752	0.97166
3830.12896	0.97145
3828.20039	0.97402
3826.27183	0.97547
3824.34326	0.97575
3822.41470	0.97311
3820.48613	0.96684
3818.55757	0.96585
3816.62901	0.96558
3814.70044	0.96430
3812.77188	0.96512
3810.84331	0.96653
3808.91475	0.96710
3806.98618	0.96556
3805.05762	0.96726
3803.12905	0.97016
3801.20049	0.96450
3799.27193	0.96128
3797.34336	0.96280
3795.41480	0.96291
3793.48623	0.96475
3791.55767	0.96724
3789.62910	0.96708
3787.70054	0.96531
3785.77197	0.96279
3783.84341	0.96040
3781.91485	0.95974
3779.98628	0.95779
3778.05772	0.95461
3776.12915	0.95504
3774.20059	0.95744
3772.27202	0.95819
3770.34346	0.95666
3768.41489	0.95718
3766.48633	0.95893
3764.55777	0.95799
3762.62920	0.95761
3760.70064	0.95679
3758.77207	0.95278
3756.84351	0.95288
3754.91494	0.95967
3752.98638	0.96813
3751.05781	0.96720
3749.12925	0.95841
3747.20069	0.95567
3745.27212	0.95166
3743.34356	0.94474
3741.41499	0.94599
3739.48643	0.95471
3737.55786	0.96320
3735.62930	0.95765
3733.70074	0.94260
3731.77217	0.93877
3729.84361	0.94353
3727.91504	0.94908
3725.98648	0.95154
3724.05791	0.95202
3722.12935	0.95022
3720.20078	0.94560
3718.27222	0.94307
3716.34366	0.94561
3714.41509	0.95197
3712.48653	0.95556
3710.55796	0.94829
3708.62940	0.94185
3706.70083	0.94252
3704.77227	0.94622
3702.84370	0.94865
3700.91514	0.94897
3698.98658	0.94932
3697.05801	0.95027
3695.12945	0.95420
3693.20088	0.96239
3691.27232	0.96966
3689.34375	0.96623
3687.41519	0.95879
3685.48662	0.95771
3683.55806	0.96141
3681.62950	0.96787
3679.70093	0.97559
3677.77237	0.98099
3675.84380	0.97691
3673.91524	0.97418
3671.98667	0.97808
3670.05811	0.97683
3668.12954	0.97693
3666.20098	0.98467
3664.27242	0.99279
3662.34385	0.99809
3660.41529	1.00301
3658.48672	1.00753
3656.55816	1.00767
3654.62959	1.00972
3652.70103	1.02094
3650.77246	1.03493
3648.84390	1.03528
3646.91534	1.03321
3644.98677	1.03849
3643.05821	1.04434
3641.12964	1.04921
3639.20108	1.05565
3637.27251	1.06515
3635.34395	1.07368
3633.41538	1.07881
3631.48682	1.08449
3629.55826	1.08927
3627.62969	1.09308
3625.70113	1.10230
3623.77256	1.11116
3621.84400	1.11765
3619.91543	1.12445
3617.98687	1.13166
3616.05830	1.13865
3614.12974	1.14499
3612.20118	1.15165
3610.27261	1.15873
3608.34405	1.16396
3606.41548	1.16900
3604.48692	1.17664
3602.55835	1.18660
3600.62979	1.19736
3598.70123	1.20773
3596.77266	1.21680
3594.84410	1.22452
3592.91553	1.23330
3590.98697	1.24402
3589.05840	1.25303
3587.12984	1.25470
3585.20127	1.25793
3583.27271	1.26836
3581.34415	1.27935
3579.41558	1.28700
3577.48702	1.29326
3575.55845	1.30095
3573.62989	1.31015
3571.70132	1.32000
3569.77276	1.32781
3567.84419	1.33024
3565.91563	1.33383
3563.98707	1.34378
3562.05850	1.35249
3560.12994	1.35728
3558.20137	1.36168
3556.27281	1.36617
3554.34424	1.37008
3552.41568	1.37657
3550.48711	1.38699
3548.55855	1.39688
3546.62999	1.40262
3544.70142	1.40842
3542.77286	1.41609
3540.84429	1.42398
3538.91573	1.43085
3536.98716	1.42936
3535.05860	1.42321
3533.13003	1.42520
3531.20147	1.43232
3529.27291	1.43840
3527.34434	1.44933
3525.41578	1.46427
3523.48721	1.46913
3521.55865	1.46327
3519.63008	1.45822
3517.70152	1.45953
3515.77295	1.46829
3513.84439	1.48089
3511.91583	1.48920
3509.98726	1.48765
3508.05870	1.48209
3506.13013	1.48239
3504.20157	1.48847
3502.27300	1.49414
3500.34444	1.49811
3498.41587	1.50093
3496.48731	1.49982
3494.55875	1.49557
3492.63018	1.49345
3490.70162	1.49724
3488.77305	1.50417
3486.84449	1.50522
3484.91592	1.49870
3482.98736	1.49246
3481.05879	1.49164
3479.13023	1.49436
3477.20167	1.49770
3475.27310	1.49848
3473.34454	1.49477
3471.41597	1.49219
3469.48741	1.49584
3467.55884	1.50320
3465.63028	1.50964
3463.70171	1.51240
3461.77315	1.51102
3459.84459	1.50614
3457.91602	1.49985
3455.98746	1.49805
3454.05889	1.50178
3452.13033	1.50369
3450.20176	1.50316
3448.27320	1.50505
3446.34464	1.50848
3444.41607	1.51129
3442.48751	1.51149
3440.55894	1.51050
3438.63038	1.51261
3436.70181	1.51331
3434.77325	1.51062
3432.84468	1.51156
3430.91612	1.51414
3428.98756	1.51156
3427.05899	1.50740
3425.13043	1.50721
3423.20186	1.50972
3421.27330	1.51110
3419.34473	1.50923
3417.41617	1.50560
3415.48760	1.50483
3413.55904	1.50740
3411.63048	1.50689
3409.70191	1.50369
3407.77335	1.50395
3405.84478	1.50490
3403.91622	1.50382
3401.98765	1.50338
3400.05909	1.50315
3398.13052	1.50302
3396.20196	1.50519
3394.27340	1.50793
3392.34483	1.50619
3390.41627	1.50248
3388.48770	1.50428
3386.55914	1.50861
3384.63057	1.50680
3382.70201	1.50031
3380.77344	1.49800
3378.84488	1.50163
3376.91632	1.50531
3374.98775	1.50861
3373.05919	1.51410
3371.13062	1.51552
3369.20206	1.51007
3367.27349	1.50517
3365.34493	1.50319
3363.41636	1.50439
3361.48780	1.51139
3359.55924	1.51786
3357.63067	1.51365
3355.70211	1.50364
3353.77354	1.50209
3351.84498	1.50898
3349.91641	1.51219
3347.98785	1.50859
3346.05928	1.50453
3344.13072	1.50517
3342.20216	1.51057
3340.27359	1.51443
3338.34503	1.51197
3336.41646	1.50884
3334.48790	1.51018
3332.55933	1.50979
3330.63077	1.50485
3328.70220	1.50135
3326.77364	1.50035
3324.84508	1.50070
3322.91651	1.50456
3320.98795	1.50909
3319.05938	1.50874
3317.13082	1.50453
3315.20225	1.50073
3313.27369	1.49928
3311.34513	1.50013
3309.41656	1.50072
3307.48800	1.49965
3305.55943	1.49857
3303.63087	1.49672
3301.70230	1.49384
3299.77374	1.49042
3297.84517	1.48740
3295.91661	1.49091
3293.98805	1.50077
3292.05948	1.50553
3290.13092	1.50131
3288.20235	1.49739
3286.27379	1.49740
3284.34522	1.49473
3282.41666	1.48909
3280.48809	1.48814
3278.55953	1.49236
3276.63097	1.49515
3274.70240	1.49341
3272.77384	1.48890
3270.84527	1.48518
3268.91671	1.48617
3266.98814	1.49027
3265.05958	1.49053
3263.13101	1.48590
3261.20245	1.48161
3259.27389	1.47951
3257.34532	1.47766
3255.41676	1.47604
3253.48819	1.47778
3251.55963	1.48206
3249.63106	1.48218
3247.70250	1.47723
3245.77393	1.47202
3243.84537	1.46726
3241.91681	1.46305
3239.98824	1.46249
3238.05968	1.46642
3236.13111	1.47055
3234.20255	1.47172
3232.27398	1.47062
3230.34542	1.46541
3228.41685	1.45578
3226.48829	1.44918
3224.55973	1.44937
3222.63116	1.45071
3220.70260	1.44987
3218.77403	1.44777
3216.84547	1.44465
3214.91690	1.44261
3212.98834	1.44286
3211.05977	1.44444
3209.13121	1.44774
3207.20265	1.45120
3205.27408	1.45052
3203.34552	1.44648
3201.41695	1.44363
3199.48839	1.44006
3197.55982	1.43404
3195.63126	1.43162
3193.70269	1.43335
3191.77413	1.43257
3189.84557	1.42834
3187.91700	1.42304
3185.98844	1.41813
3184.05987	1.41828
3182.13131	1.42360
3180.20274	1.42538
3178.27418	1.42146
3176.34562	1.42029
3174.41705	1.42423
3172.48849	1.42738
3170.55992	1.42711
3168.63136	1.42532
3166.70279	1.42461
3164.77423	1.42609
3162.84566	1.42654
3160.91710	1.42310
3158.98854	1.41839
3157.05997	1.41584
3155.13141	1.41364
3153.20284	1.40870
3151.27428	1.40353
3149.34571	1.40203
3147.41715	1.40326
3145.48858	1.40412
3143.56002	1.40395
3141.63146	1.40375
3139.70289	1.40460
3137.77433	1.40581
3135.84576	1.40461
3133.91720	1.40128
3131.98863	1.39907
3130.06007	1.39811
3128.13150	1.39683
3126.20294	1.39594
3124.27438	1.39632
3122.34581	1.39789
3120.41725	1.39869
3118.48868	1.39526
3116.56012	1.38874
3114.63155	1.38366
3112.70299	1.38284
3110.77442	1.38563
3108.84586	1.38757
3106.91730	1.38770
3104.98873	1.38947
3103.06017	1.39204
3101.13160	1.39113
3099.20304	1.38617
3097.27447	1.38231
3095.34591	1.38345
3093.41734	1.38748
3091.48878	1.38940
3089.56022	1.38596
3087.63165	1.37918
3085.70309	1.37390
3083.77452	1.37374
3081.84596	1.37898
3079.91739	1.38394
3077.98883	1.38379
3076.06026	1.38119
3074.13170	1.37937
3072.20314	1.37895
3070.27457	1.37813
3068.34601	1.37591
3066.41744	1.37616
3064.48888	1.37782
3062.56031	1.37521
3060.63175	1.36904
3058.70318	1.36283
3056.77462	1.35905
3054.84606	1.35663
3052.91749	1.35330
3050.98893	1.35080
3049.06036	1.34948
3047.13180	1.34862
3045.20323	1.34947
3043.27467	1.34969
3041.34610	1.34603
3039.41754	1.34151
3037.48898	1.34094
3035.56041	1.34269
3033.63185	1.34085
3031.70328	1.33572
3029.77472	1.33296
3027.84615	1.33233
3025.91759	1.33014
3023.98903	1.32659
3022.06046	1.32466
3020.13190	1.32643
3018.20333	1.32946
3016.27477	1.32932
3014.34620	1.32702
3012.41764	1.32575
3010.48907	1.32408
3008.56051	1.32080
3006.63195	1.31792
3004.70338	1.31551
3002.77482	1.31333
3000.84625	1.31303
2998.91769	1.31410
2996.98912	1.31491
2995.06056	1.31528
2993.13199	1.31578
2991.20343	1.31671
2989.27487	1.31750
2987.34630	1.31726
2985.41774	1.31698
2983.48917	1.31858
2981.56061	1.32207
2979.63204	1.32563
2977.70348	1.32738
2975.77491	1.32845
2973.84635	1.33156
2971.91779	1.33604
2969.98922	1.33879
2968.06066	1.33986
2966.13209	1.34236
2964.20353	1.34615
2962.27496	1.34740
2960.34640	1.34537
2958.41783	1.34385
2956.48927	1.34426
2954.56071	1.34361
2952.63214	1.34109
2950.70358	1.33863
2948.77501	1.33850
2946.84645	1.34105
2944.91788	1.34220
2942.98932	1.34114
2941.06075	1.34247
2939.13219	1.34734
2937.20363	1.35221
2935.27506	1.35415
2933.34650	1.35491
2931.41793	1.35648
2929.48937	1.35782
2927.56080	1.36051
2925.63224	1.36569
2923.70367	1.36894
2921.77511	1.36839
2919.84655	1.36631
2917.91798	1.36268
2915.98942	1.35564
2914.06085	1.34652
2912.13229	1.33957
2910.20372	1.33538
2908.27516	1.33191
2906.34659	1.32875
2904.41803	1.32544
2902.48947	1.32158
2900.56090	1.31692
2898.63234	1.31187
2896.70377	1.30809
2894.77521	1.30643
2892.84664	1.30615
2890.91808	1.30494
2888.98952	1.30191
2887.06095	1.29931
2885.13239	1.29877
2883.20382	1.29944
2881.27526	1.29958
2879.34669	1.29872
2877.41813	1.29778
2875.48956	1.29718
2873.56100	1.29546
2871.63244	1.29117
2869.70387	1.28559
2867.77531	1.28054
2865.84674	1.27686
2863.91818	1.27470
2861.98961	1.27340
2860.06105	1.27328
2858.13248	1.27548
2856.20392	1.27923
2854.27536	1.28242
2852.34679	1.28445
2850.41823	1.28396
2848.48966	1.27746
2846.56110	1.26412
2844.63253	1.24792
2842.70397	1.23485
2840.77540	1.22693
2838.84684	1.22079
2836.91828	1.21407
2834.98971	1.20822
2833.06115	1.20526
2831.13258	1.20468
2829.20402	1.20372
2827.27545	1.20121
2825.34689	1.19752
2823.41832	1.19206
2821.48976	1.18571
2819.56120	1.18159
2817.63263	1.17955
2815.70407	1.17667
2813.77550	1.17242
2811.84694	1.16779
2809.91837	1.16356
2807.98981	1.16020
2806.06124	1.15685
2804.13268	1.15270
2802.20412	1.14862
2800.27555	1.14548
2798.34699	1.14293
2796.41842	1.14045
2794.48986	1.13746
2792.56129	1.13425
2790.63273	1.13153
2788.70416	1.12891
2786.77560	1.12637
2784.84704	1.12407
2782.91847	1.12183
2780.98991	1.12050
2779.06134	1.11950
2777.13278	1.11684
2775.20421	1.11367
2773.27565	1.11235
2771.34708	1.11222
2769.41852	1.11229
2767.48996	1.11179
2765.56139	1.10902
2763.63283	1.10494
2761.70426	1.10246
2759.77570	1.10130
2757.84713	1.09931
2755.91857	1.09632
2753.99001	1.09323
2752.06144	1.09039
2750.13288	1.08788
2748.20431	1.08523
2746.27575	1.08212
2744.34718	1.07898
2742.41862	1.07572
2740.49005	1.07271
2738.56149	1.07106
2736.63293	1.07008
2734.70436	1.06838
2732.77580	1.06583
2730.84723	1.06308
2728.91867	1.06091
2726.99010	1.05910
2725.06154	1.05697
2723.13297	1.05484
2721.20441	1.05308
2719.27585	1.05137
2717.34728	1.04928
2715.41872	1.04717
2713.49015	1.04574
2711.56159	1.04454
2709.63302	1.04255
2707.70446	1.04018
2705.77589	1.03847
2703.84733	1.03746
2701.91877	1.03677
2699.99020	1.03582
2698.06164	1.03370
2696.13307	1.03027
2694.20451	1.02719
2692.27594	1.02565
2690.34738	1.02432
2688.41881	1.02196
2686.49025	1.01916
2684.56169	1.01618
2682.63312	1.01258
2680.70456	1.00897
2678.77599	1.00659
2676.84743	1.00503
2674.91886	1.00259
2672.99030	0.99916
2671.06173	0.99638
2669.13317	0.99459
2667.20461	0.99251
2665.27604	0.98991
2663.34748	0.98756
2661.41891	0.98533
2659.49035	0.98297
2657.56178	0.98085
2655.63322	0.97905
2653.70465	0.97751
2651.77609	0.97628
2649.84753	0.97525
2647.91896	0.97380
2645.99040	0.97121
2644.06183	0.96824
2642.13327	0.96613
2640.20470	0.96476
2638.27614	0.96370
2636.34757	0.96250
2634.41901	0.96082
2632.49045	0.95932
2630.56188	0.95823
2628.63332	0.95643
2626.70475	0.95377
2624.77619	0.95133
2622.84762	0.94919
2620.91906	0.94680
2618.99049	0.94478
2617.06193	0.94349
2615.13337	0.94169
2613.20480	0.93898
2611.27624	0.93688
2609.34767	0.93553
2607.41911	0.93367
2605.49054	0.93149
2603.56198	0.92968
2601.63342	0.92776
2599.70485	0.92548
2597.77629	0.92350
2595.84772	0.92205
2593.91916	0.92071
2591.99059	0.91921
2590.06203	0.91777
2588.13346	0.91648
2586.20490	0.91547
2584.27634	0.91469
2582.34777	0.91360
2580.41921	0.91237
2578.49064	0.91155
2576.56208	0.91065
2574.63351	0.90922
2572.70495	0.90780
2570.77638	0.90691
2568.84782	0.90630
2566.91926	0.90519
2564.99069	0.90335
2563.06213	0.90156
2561.13356	0.90018
2559.20500	0.89907
2557.27643	0.89817
2555.34787	0.89694
2553.41930	0.89493
2551.49074	0.89291
2549.56218	0.89133
2547.63361	0.88963
2545.70505	0.88786
2543.77648	0.88636
2541.84792	0.88479
2539.91935	0.88322
2537.99079	0.88206
2536.06222	0.88096
2534.13366	0.87942
2532.20510	0.87776
2530.27653	0.87674
2528.34797	0.87606
2526.41940	0.87485
2524.49084	0.87343
2522.56227	0.87237
2520.63371	0.87114
2518.70514	0.86962
2516.77658	0.86858
2514.84802	0.86795
2512.91945	0.86717
2510.99089	0.86627
2509.06232	0.86566
2507.13376	0.86521
2505.20519	0.86427
2503.27663	0.86264
2501.34806	0.86077
2499.41950	0.85935
2497.49094	0.85855
2495.56237	0.85751
2493.63381	0.85579
2491.70524	0.85366
2489.77668	0.85120
2487.84811	0.84871
2485.91955	0.84671
2483.99098	0.84529
2482.06242	0.84388
2480.13386	0.84159
2478.20529	0.83870
2476.27673	0.83625
2474.34816	0.83416
2472.41960	0.83208
2470.49103	0.83027
2468.56247	0.82840
2466.63391	0.82604
2464.70534	0.82375
2462.77678	0.82231
2460.84821	0.82134
2458.91965	0.81988
2456.99108	0.81781
2455.06252	0.81556
2453.13395	0.81344
2451.20539	0.81179
2449.27683	0.81029
2447.34826	0.80830
2445.41970	0.80630
2443.49113	0.80489
2441.56257	0.80372
2439.63400	0.80248
2437.70544	0.80137
2435.77687	0.80040
2433.84831	0.79917
2431.91975	0.79761
2429.99118	0.79596
2428.06262	0.79437
2426.13405	0.79296
2424.20549	0.79158
2422.27692	0.78997
2420.34836	0.78803
2418.41979	0.78585
2416.49123	0.78357
2414.56267	0.78138
2412.63410	0.77972
2410.70554	0.77856
2408.77697	0.77699
2406.84841	0.77488
2404.91984	0.77286
2402.99128	0.77100
2401.06271	0.76917
2399.13415	0.76751
2397.20559	0.76589
2395.27702	0.76420
2393.34846	0.76267
2391.41989	0.76132
2389.49133	0.76002
2387.56276	0.75879
2385.63420	0.75729
2383.70563	0.75554
2381.77707	0.75445
2379.84851	0.75436
2377.91994	0.75442
2375.99138	0.75368
2374.06281	0.75228
2372.13425	0.75158
2370.20568	0.75098
2368.27712	0.74872
2366.34855	0.74700
2364.41999	0.74923
2362.49143	0.75267
2360.56286	0.75177
2358.63430	0.74794
2356.70573	0.74544
2354.77717	0.74358
2352.84860	0.74147
2350.92004	0.74048
2348.99147	0.74027
2347.06291	0.73932
2345.13435	0.73755
2343.20578	0.73655
2341.27722	0.73561
2339.34865	0.73399
2337.42009	0.73288
2335.49152	0.73181
2333.56296	0.72983
2331.63440	0.72820
2329.70583	0.72774
2327.77727	0.72653
2325.84870	0.72403
2323.92014	0.72216
2321.99157	0.72202
2320.06301	0.72259
2318.13444	0.72258
2316.20588	0.72174
2314.27732	0.72020
2312.34875	0.71795
2310.42019	0.71564
2308.49162	0.71394
2306.56306	0.71263
2304.63449	0.71117
2302.70593	0.70956
2300.77736	0.70800
2298.84880	0.70647
2296.92024	0.70517
2294.99167	0.70414
2293.06311	0.70265
2291.13454	0.70049
2289.20598	0.69845
2287.27741	0.69687
2285.34885	0.69554
2283.42028	0.69418
2281.49172	0.69250
2279.56316	0.69044
2277.63459	0.68849
2275.70603	0.68727
2273.77746	0.68632
2271.84890	0.68486
2269.92033	0.68331
2267.99177	0.68202
2266.06320	0.68041
2264.13464	0.67852
2262.20608	0.67705
2260.27751	0.67604
2258.34895	0.67503
2256.42038	0.67377
2254.49182	0.67232
2252.56325	0.67095
2250.63469	0.66992
2248.70612	0.66909
2246.77756	0.66827
2244.84900	0.66735
2242.92043	0.66610
2240.99187	0.66467
2239.06330	0.66334
2237.13474	0.66211
2235.20617	0.66084
2233.27761	0.65959
2231.34904	0.65835
2229.42048	0.65686
2227.49192	0.65502
2225.56335	0.65324
2223.63479	0.65196
2221.70622	0.65100
2219.77766	0.64989
2217.84909	0.64868
2215.92053	0.64757
2213.99196	0.64645
2212.06340	0.64531
2210.13484	0.64433
2208.20627	0.64346
2206.27771	0.64267
2204.34914	0.64199
2202.42058	0.64138
2200.49201	0.64088
2198.56345	0.64048
2196.63488	0.64024
2194.70632	0.64034
2192.77776	0.64069
2190.84919	0.64085
2188.92063	0.64077
2186.99206	0.64084
2185.06350	0.64107
2183.13493	0.64121
2181.20637	0.64117
2179.27781	0.64109
2177.34924	0.64108
2175.42068	0.64093
2173.49211	0.64070
2171.56355	0.64055
2169.63498	0.64031
2167.70642	0.64011
2165.77785	0.64025
2163.84929	0.64043
2161.92073	0.64023
2159.99216	0.63987
2158.06360	0.63966
2156.13503	0.63948
2154.20647	0.63926
2152.27790	0.63905
2150.34934	0.63882
2148.42077	0.63856
2146.49221	0.63823
2144.56365	0.63790
2142.63508	0.63782
2140.70652	0.63800
2138.77795	0.63820
2136.84939	0.63825
2134.92082	0.63811
2132.99226	0.63793
2131.06369	0.63799
2129.13513	0.63822
2127.20657	0.63830
2125.27800	0.63829
2123.34944	0.63837
2121.42087	0.63844
2119.49231	0.63831
2117.56374	0.63800
2115.63518	0.63779
2113.70661	0.63773
2111.77805	0.63745
2109.84949	0.63700
2107.92092	0.63663
2105.99236	0.63624
2104.06379	0.63582
2102.13523	0.63565
2100.20666	0.63571
2098.27810	0.63554
2096.34953	0.63486
2094.42097	0.63404
2092.49241	0.63344
2090.56384	0.63308
2088.63528	0.63275
2086.70671	0.63230
2084.77815	0.63174
2082.84958	0.63123
2080.92102	0.63077
2078.99245	0.63034
2077.06389	0.63002
2075.13533	0.62970
2073.20676	0.62931
2071.27820	0.62899
2069.34963	0.62867
2067.42107	0.62836
2065.49250	0.62804
2063.56394	0.62763
2061.63537	0.62723
2059.70681	0.62691
2057.77825	0.62662
2055.84968	0.62634
2053.92112	0.62601
2051.99255	0.62541
2050.06399	0.62456
2048.13542	0.62384
2046.20686	0.62336
2044.27830	0.62282
2042.34973	0.62223
2040.42117	0.62179
2038.49260	0.62127
2036.56404	0.62052
2034.63547	0.61989
2032.70691	0.61963
2030.77834	0.61946
2028.84978	0.61900
2026.92122	0.61836
2024.99265	0.61792
2023.06409	0.61772
2021.13552	0.61761
2019.20696	0.61747
2017.27839	0.61735
2015.34983	0.61737
2013.42126	0.61743
2011.49270	0.61740
2009.56414	0.61732
2007.63557	0.61740
2005.70701	0.61756
2003.77844	0.61740
2001.84988	0.61685
1999.92131	0.61633
1997.99275	0.61609
1996.06418	0.61605
1994.13562	0.61598
1992.20706	0.61563
1990.27849	0.61516
1988.34993	0.61493
1986.42136	0.61493
1984.49280	0.61500
1982.56423	0.61499
1980.63567	0.61473
1978.70710	0.61426
1976.77854	0.61385
1974.84998	0.61358
1972.92141	0.61328
1970.99285	0.61298
1969.06428	0.61278
1967.13572	0.61269
1965.20715	0.61281
1963.27859	0.61313
1961.35002	0.61333
1959.42146	0.61333
1957.49290	0.61340
1955.56433	0.61360
1953.63577	0.61391
1951.70720	0.61426
1949.77864	0.61450
1947.85007	0.61474
1945.92151	0.61494
1943.99294	0.61487
1942.06438	0.61469
1940.13582	0.61471
1938.20725	0.61485
1936.27869	0.61498
1934.35012	0.61500
1932.42156	0.61485
1930.49299	0.61466
1928.56443	0.61446
1926.63586	0.61422
1924.70730	0.61397
1922.77874	0.61353
1920.85017	0.61301
1918.92161	0.61271
1916.99304	0.61244
1915.06448	0.61198
1913.13591	0.61145
1911.20735	0.61104
1909.27878	0.61084
1907.35022	0.61068
1905.42166	0.61036
1903.49309	0.60989
1901.56453	0.60935
1899.63596	0.60885
1897.70740	0.60843
1895.77883	0.60800
1893.85027	0.60751
1891.92171	0.60704
1889.99314	0.60674
1888.06458	0.60654
1886.13601	0.60622
1884.20745	0.60562
1882.27888	0.60473
1880.35032	0.60374
1878.42175	0.60278
1876.49319	0.60187
1874.56463	0.60087
1872.63606	0.59974
1870.70750	0.59848
1868.77893	0.59701
1866.85037	0.59556
1864.92180	0.59437
1862.99324	0.59326
1861.06467	0.59204
1859.13611	0.59062
1857.20755	0.58902
1855.27898	0.58759
1853.35042	0.58643
1851.42185	0.58519
1849.49329	0.58381
1847.56472	0.58251
1845.63616	0.58142
1843.70759	0.58037
1841.77903	0.57936
1839.85047	0.57845
1837.92190	0.57749
1835.99334	0.57641
1834.06477	0.57531
1832.13621	0.57436
1830.20764	0.57346
1828.27908	0.57254
1826.35051	0.57159
1824.42195	0.57072
1822.49339	0.57008
1820.56482	0.56946
1818.63626	0.56877
1816.70769	0.56804
1814.77913	0.56718
1812.85056	0.56608
1810.92200	0.56488
1808.99343	0.56382
1807.06487	0.56290
1805.13631	0.56211
1803.20774	0.56129
1801.27918	0.56021
1799.35061	0.55911
1797.42205	0.55832
1795.49348	0.55756
1793.56492	0.55673
1791.63635	0.55637
1789.70779	0.55634
1787.77923	0.55627
1785.85066	0.55618
1783.92210	0.55602
1781.99353	0.55591
1780.06497	0.55613
1778.13640	0.55661
1776.20784	0.55697
1774.27927	0.55747
1772.35071	0.55886
1770.42215	0.56084
1768.49358	0.56263
1766.56502	0.56443
1764.63645	0.56637
1762.70789	0.56917
1760.77932	0.57329
1758.85076	0.57789
1756.92220	0.58365
1754.99363	0.58982
1753.06507	0.59590
1751.13650	0.60466
1749.20794	0.61647
1747.27937	0.62671
1745.35081	0.63474
1743.42224	0.64186
1741.49368	0.64816
1739.56512	0.65354
1737.63655	0.65729
1735.70799	0.66002
1733.77942	0.66412
1731.85086	0.66857
1729.92229	0.67255
1727.99373	0.67727
1726.06516	0.68293
1724.13660	0.69023
1722.20804	0.69781
1720.27947	0.70465
1718.35091	0.71538
1716.42234	0.73507
1714.49378	0.75356
1712.56521	0.76891
1710.63665	0.78539
1708.70808	0.80388
1706.77952	0.82790
1704.85096	0.85767
1702.92239	0.88414
1700.99383	0.91751
1699.06526	0.96613
1697.13670	1.00780
1695.20813	1.04439
1693.27957	1.06926
1691.35100	1.08675
1689.42244	1.10607
1687.49388	1.12224
1685.56531	1.13591
1683.63675	1.15398
1681.70818	1.16559
1679.77962	1.17066
1677.85105	1.17447
1675.92249	1.17936
1673.99392	1.18461
1672.06536	1.18759
1670.13680	1.18869
1668.20823	1.18905
1666.27967	1.18826
1664.35110	1.18732
1662.42254	1.18695
1660.49397	1.18676
1658.56541	1.18641
1656.63684	1.18516
1654.70828	1.18282
1652.77972	1.18104
1650.85115	1.18099
1648.92259	1.17965
1646.99402	1.17763
1645.06546	1.17742
1643.13689	1.17658
1641.20833	1.17474
1639.27976	1.17278
1637.35120	1.17125
1635.42264	1.16978
1633.49407	1.16822
1631.56551	1.16646
1629.63694	1.16339
1627.70838	1.15930
1625.77981	1.15566
1623.85125	1.15261
1621.92269	1.14896
1619.99412	1.14424
1618.06556	1.13828
1616.13699	1.13178
1614.20843	1.12739
1612.27986	1.12399
1610.35130	1.12059
1608.42273	1.11634
1606.49417	1.11091
1604.56561	1.10571
1602.63704	1.10189
1600.70848	1.09946
1598.77991	1.09740
1596.85135	1.09584
1594.92278	1.09546
1592.99422	1.09562
1591.06565	1.09591
1589.13709	1.09681
1587.20853	1.09813
1585.27996	1.09963
1583.35140	1.10229
1581.42283	1.10566
1579.49427	1.10816
1577.56570	1.11118
1575.63714	1.11701
1573.70857	1.12111
1571.78001	1.12301
1569.85145	1.12624
1567.92288	1.13034
1565.99432	1.13317
1564.06575	1.13502
1562.13719	1.13499
1560.20862	1.13459
1558.28006	1.14018
1556.35149	1.14488
1554.42293	1.14625
1552.49437	1.14703
1550.56580	1.14751
1548.63724	1.14717
1546.70867	1.14581
1544.78011	1.14365
1542.85154	1.13989
1540.92298	1.13543
1538.99441	1.13600
1537.06585	1.13705
1535.13729	1.13627
1533.20872	1.13470
1531.28016	1.13240
1529.35159	1.12940
1527.42303	1.12589
1525.49446	1.12277
1523.56590	1.12095
1521.63733	1.11959
1519.70877	1.11800
1517.78021	1.11512
1515.85164	1.11003
1513.92308	1.10418
1511.99451	1.09877
1510.06595	1.09391
1508.13738	1.08595
1506.20882	1.07080
1504.28025	1.06225
1502.35169	1.05664
1500.42313	1.04924
1498.49456	1.03903
1496.56600	1.02768
1494.63743	1.01871
1492.70887	1.01154
1490.78030	1.00295
1488.85174	0.99235
1486.92317	0.98452
1484.99461	0.97958
1483.06605	0.97603
1481.13748	0.97379
1479.20892	0.97343
1477.28035	0.97560
1475.35179	0.98109
1473.42322	0.99184
1471.49466	1.00367
1469.56610	1.00940
1467.63753	1.01260
1465.70897	1.01672
1463.78040	1.02132
1461.85184	1.02382
1459.92327	1.02478
1457.99471	1.02778
1456.06614	1.03411
1454.13758	1.03633
1452.20902	1.03586
1450.28045	1.03487
1448.35189	1.03374
1446.42332	1.03247
1444.49476	1.03100
1442.56619	1.02887
1440.63763	1.02612
1438.70906	1.02292
1436.78050	1.01920
1434.85194	1.01562
1432.92337	1.01246
1430.99481	1.00988
1429.06624	1.00849
1427.13768	1.00795
1425.20911	1.00803
1423.28055	1.00863
1421.35198	1.00957
1419.42342	1.01233
1417.49486	1.01618
1415.56629	1.01816
1413.63773	1.01952
1411.70916	1.02077
1409.78060	1.02143
1407.85203	1.02175
1405.92347	1.02196
1403.99490	1.02176
1402.06634	1.02095
1400.13778	1.01934
1398.20921	1.01688
1396.28065	1.01392
1394.35208	1.01060
1392.42352	1.00780
1390.49495	1.00606
1388.56639	1.00558
1386.63782	1.00641
1384.70926	1.00712
1382.78070	1.00720
1380.85213	1.00699
1378.92357	1.00608
1376.99500	1.00384
1375.06644	1.00008
1373.13787	0.99508
1371.20931	0.98942
1369.28074	0.98299
1367.35218	0.97637
1365.42362	0.97032
1363.49505	0.96416
1361.56649	0.95875
1359.63792	0.95542
1357.70936	0.95323
1355.78079	0.95167
1353.85223	0.95069
1351.92366	0.94993
1349.99510	0.94933
1348.06654	0.94907
1346.13797	0.94882
1344.20941	0.94837
1342.28084	0.94785
1340.35228	0.94749
1338.42371	0.94760
1336.49515	0.94836
1334.56659	0.94993
1332.63802	0.95244
1330.70946	0.95544
1328.78089	0.95794
1326.85233	0.95973
1324.92376	0.96135
1322.99520	0.96277
1321.06663	0.96368
1319.13807	0.96449
1317.20951	0.96569
1315.28094	0.96733
1313.35238	0.96910
1311.42381	0.97015
1309.49525	0.97019
1307.56668	0.96999
1305.63812	0.97001
1303.70955	0.96983
1301.78099	0.96910
1299.85243	0.96766
1297.92386	0.96563
1295.99530	0.96356
1294.06673	0.96178
1292.13817	0.96016
1290.20960	0.95863
1288.28104	0.95751
1286.35247	0.95740
1284.42391	0.95817
1282.49535	0.95909
1280.56678	0.95970
1278.63822	0.96010
1276.70965	0.96087
1274.78109	0.96224
1272.85252	0.96416
1270.92396	0.96670
1268.99539	0.96940
1267.06683	0.97162
1265.13827	0.97314
1263.20970	0.97407
1261.28114	0.97467
1259.35257	0.97515
1257.42401	0.97583
1255.49544	0.97674
1253.56688	0.97733
1251.63831	0.97733
1249.70975	0.97689
1247.78119	0.97641
1245.85262	0.97623
1243.92406	0.97615
1241.99549	0.97583
1240.06693	0.97502
1238.13836	0.97356
1236.20980	0.97160
1234.28123	0.96936
1232.35267	0.96690
1230.42411	0.96452
1228.49554	0.96211
1226.56698	0.95916
1224.63841	0.95591
1222.70985	0.95276
1220.78128	0.94964
1218.85272	0.94633
1216.92415	0.94273
1214.99559	0.93958
1213.06703	0.93760
1211.13846	0.93634
1209.20990	0.93519
1207.28133	0.93338
1205.35277	0.92981
1203.42420	0.92420
1201.49564	0.91717
1199.56708	0.90934
1197.63851	0.90113
1195.70995	0.89299
1193.78138	0.88527
1191.85282	0.87810
1189.92425	0.87166
1187.99569	0.86653
1186.06712	0.86301
1184.13856	0.86098
1182.21000	0.86108
1180.28143	0.86438
1178.35287	0.87056
1176.42430	0.87834
1174.49574	0.88704
1172.56717	0.89638
1170.63861	0.90632
1168.71004	0.91724
1166.78148	0.92914
1164.85292	0.94071
1162.92435	0.95034
1160.99579	0.95746
1159.06722	0.96194
1157.13866	0.96350
1155.21009	0.96230
1153.28153	0.95912
1151.35296	0.95482
1149.42440	0.94994
1147.49584	0.94460
1145.56727	0.93856
1143.63871	0.93231
1141.71014	0.92704
1139.78158	0.92356
1137.85301	0.92224
1135.92445	0.92311
1133.99588	0.92560
1132.06732	0.92919
1130.13876	0.93376
1128.21019	0.93940
1126.28163	0.94583
1124.35306	0.95206
1122.42450	0.95769
1120.49593	0.96302
1118.56737	0.96739
1116.63880	0.96992
1114.71024	0.97134
1112.78168	0.97264
1110.85311	0.97380
1108.92455	0.97470
1106.99598	0.97565
1105.06742	0.97718
1103.13885	0.97946
1101.21029	0.98217
1099.28172	0.98604
1097.35316	0.99207
1095.42460	0.99973
1093.49603	1.00811
1091.56747	1.01703
1089.63890	1.02614
1087.71034	1.03564
1085.78177	1.04594
1083.85321	1.05484
1081.92464	1.05967
1079.99608	1.06105
1078.06752	1.06031
1076.13895	1.05703
1074.21039	1.05160
1072.28182	1.04567
1070.35326	1.04012
1068.42469	1.03542
1066.49613	1.03099
1064.56756	1.02587
1062.63900	1.02129
1060.71044	1.01830
1058.78187	1.01596
1056.85331	1.01339
1054.92474	1.01051
1052.99618	1.00798
1051.06761	1.00701
1049.13905	1.00770
1047.21049	1.00897
1045.28192	1.01053
1043.35336	1.01257
1041.42479	1.01474
1039.49623	1.01658
1037.56766	1.01779
1035.63910	1.01826
1033.71053	1.01800
1031.78197	1.01717
1029.85341	1.01624
1027.92484	1.01480
1025.99628	1.01155
1024.06771	1.00679
1022.13915	1.00233
1020.21058	0.99881
1018.28202	0.99523
1016.35345	0.99067
1014.42489	0.98483
1012.49633	0.97747
1010.56776	0.96837
1008.63920	0.95758
1006.71063	0.94572
1004.78207	0.93365
1002.85350	0.92157
1000.92494	0.90943
998.99637	0.89799
997.06781	0.88809
995.13925	0.87934
993.21068	0.87067
991.28212	0.86116
989.35355	0.85044
987.42499	0.83887
985.49642	0.82682
983.56786	0.81487
981.63929	0.80437
979.71073	0.79615
977.78217	0.78991
975.85360	0.78497
973.92504	0.78010
971.99647	0.77452
970.06791	0.76869
968.13934	0.76328
966.21078	0.75878
964.28221	0.75558
962.35365	0.75386
960.42509	0.75439
958.49652	0.75755
956.56796	0.76135
954.63939	0.76280
952.71083	0.76022
950.78226	0.75365
948.85370	0.74438
946.92513	0.73417
944.99657	0.72439
943.06801	0.71552
941.13944	0.70735
939.21088	0.69950
937.28231	0.69170
935.35375	0.68412
933.42518	0.67729
931.49662	0.67137
929.56805	0.66631
927.63949	0.66218
925.71093	0.65895
923.78236	0.65647
921.85380	0.65451
919.92523	0.65256
917.99667	0.65017
916.06810	0.64758
914.13954	0.64556
912.21098	0.64469
910.28241	0.64534
908.35385	0.64763
906.42528	0.65120
904.49672	0.65576
902.56815	0.66114
900.63959	0.66663
898.71102	0.67098
896.78246	0.67344
894.85390	0.67419
892.92533	0.67368
890.99677	0.67236
889.06820	0.67063
887.13964	0.66907
885.21107	0.66810
883.28251	0.66752
881.35394	0.66712
879.42538	0.66726
877.49682	0.66827
875.56825	0.66984
873.63969	0.67129
871.71112	0.67236
869.78256	0.67344
867.85399	0.67502
865.92543	0.67721
863.99686	0.67998
862.06830	0.68370
860.13974	0.68851
858.21117	0.69378
856.28261	0.69935
854.35404	0.70562
852.42548	0.71230
850.49691	0.71871
848.56835	0.72488
846.63978	0.73086
844.71122	0.73592
842.78266	0.73989
840.85409	0.74347
838.92553	0.74647
836.99696	0.74857
835.06840	0.75063
833.13983	0.75288
831.21127	0.75451
829.28270	0.75554
827.35414	0.75659
825.42558	0.75788
823.49701	0.75893
821.56845	0.75947
819.63988	0.76032
817.71132	0.76194
815.78275	0.76397
813.85419	0.76641
811.92562	0.76903
809.99706	0.77101
808.06850	0.77227
806.13993	0.77384
804.21137	0.77594
802.28280	0.77776
800.35424	0.77927
798.42567	0.78073
796.49711	0.78196
794.56854	0.78305
792.63998	0.78431
790.71142	0.78585
788.78285	0.78731
786.85429	0.78840
784.92572	0.78983
782.99716	0.79179
781.06859	0.79356
779.14003	0.79532
777.21147	0.79729
775.28290	0.79891
773.35434	0.79983
771.42577	0.79980
769.49721	0.79851
767.56864	0.79628
765.64008	0.79450
763.71151	0.79422
761.78295	0.79499
759.85439	0.79623
757.92582	0.79817
755.99726	0.80090
754.06869	0.80459
752.14013	0.80981
750.21156	0.81614
748.28300	0.82262
746.35443	0.82904
744.42587	0.83531
742.49731	0.84085
740.56874	0.84556
738.64018	0.85056
736.71161	0.85677
734.78305	0.86376
732.85448	0.87127
730.92592	0.87936
728.99735	0.88719
727.06879	0.89416
725.14023	0.90058
723.21166	0.90624
721.28310	0.91104
719.35453	0.91541
717.42597	0.91923
715.49740	0.92261
713.56884	0.92608
711.64027	0.92878
709.71171	0.92973
707.78315	0.92989
705.85458	0.93034
703.92602	0.92986
701.99745	0.92700
700.06889	0.92275
698.14032	0.91875
696.21176	0.91551
694.28319	0.91314
692.35463	0.91187
690.42607	0.91155
688.49750	0.91167
686.56894	0.91235
684.64037	0.91386
682.71181	0.91632
680.78324	0.92021
678.85468	0.92585
676.92611	0.93314
674.99755	0.94154
673.06899	0.94990
671.14042	0.95749
669.21186	0.96631
667.28329	0.97602
665.35473	0.98148
663.42616	0.98543
661.49760	0.98961
659.56903	0.99394
657.64047	0.99906
655.71191	1.00507
653.78334	1.01054
651.85478	1.01358
649.92621	1.01489
647.99765	1.01725
646.06908	1.02068
644.14052	1.02299
642.21195	1.02411
640.28339	1.02534
638.35483	1.02582
636.42626	1.02511
634.49770	1.02438
632.56913	1.02252
630.64057	1.01922
628.71200	1.01702
626.78344	1.01655
624.85488	1.01781
622.92631	1.02133
620.99775	1.02512
619.06918	1.02791
617.14062	1.03007
615.21205	1.03180
613.28349	1.03480
611.35492	1.03906
609.42636	1.04217
607.49780	1.04278
605.56923	1.04092
603.64067	1.03974
601.71210	1.04108
599.78354	1.04186
