3997.91406	0.55025
3995.98550	0.54958
3994.05693	0.54982
3992.12837	0.55064
3990.19980	0.55108
3988.27124	0.55075
3986.34268	0.55008
3984.41411	0.55015
3982.48555	0.55129
3980.55698	0.55213
3978.62842	0.55205
3976.69985	0.55129
3974.77129	0.54987
3972.84272	0.54896
3970.91416	0.54976
3968.98560	0.55093
3967.05703	0.55064
3965.12847	0.54936
3963.19990	0.54810
3961.27134	0.54700
3959.34277	0.54586
3957.41421	0.54424
3955.48564	0.54245
3953.55708	0.54164
3951.62852	0.54199
3949.69995	0.54338
3947.77139	0.54475
3945.84282	0.54420
3943.91426	0.54346
3941.98569	0.54369
3940.05713	0.54259
3938.12856	0.54066
3936.20000	0.53906
3934.27144	0.53749
3932.34287	0.53681
3930.41431	0.53733
3928.48574	0.53660
3926.55718	0.53505
3924.62861	0.53614
3922.70005	0.53784
3920.77148	0.53723
3918.84292	0.53770
3916.91436	0.53987
3914.98579	0.53991
3913.05723	0.53849
3911.12866	0.53799
3909.20010	0.53663
3907.27153	0.53274
3905.34297	0.53094
3903.41440	0.53520
3901.48584	0.53943
3899.55728	0.54040
3897.62871	0.53865
3895.70015	0.53513
3893.77158	0.53344
3891.84302	0.53583
3889.91445	0.53540
3887.98589	0.53122
3886.05733	0.53077
3884.12876	0.53258
3882.20020	0.53268
3880.27163	0.53455
3878.34307	0.53325
3876.41450	0.52881
3874.48594	0.52718
3872.55737	0.52911
3870.62881	0.53428
3868.70025	0.53644
3866.77168	0.53209
3864.84312	0.53084
3862.91455	0.53366
3860.98599	0.53191
3859.05742	0.52636
3857.12886	0.52048
3855.20029	0.51987
3853.27173	0.53145
3851.34317	0.53501
3849.41460	0.52855
3847.48604	0.52211
3845.55747	0.51755
3843.62891	0.51433
3841.70034	0.51299
3839.77178	0.51673
3837.84321	0.52284
3835.91465	0.52343
3833.98609	0.52287
3832.05752	0.52341
3830.12896	0.52170
3828.20039	0.51975
3826.27183	0.51938
3824.34326	0.51780
3822.41470	0.51887
3820.48613	0.52361
3818.55757	0.52063
3816.62901	0.51758
3814.70044	0.51882
3812.77188	0.51753
3810.84331	0.51415
3808.91475	0.51296
3806.98618	0.51616
3805.05762	0.51550
3803.12905	0.51131
3801.20049	0.51370
3799.27193	0.51658
3797.34336	0.51657
3795.41480	0.51711
3793.48623	0.51581
3791.55767	0.51358
3789.62910	0.51223
3787.70054	0.51077
3785.77197	0.51011
3783.84341	0.51052
3781.91485	0.50973
3779.98628	0.51038
3778.05772	0.51269
3776.12915	0.51141
3774.20059	0.50776
3772.27202	0.50600
3770.34346	0.50845
3768.41489	0.51036
3766.48633	0.50840
3764.55777	0.50539
3762.62920	0.50240
3760.70064	0.50243
3758.77207	0.50661
3756.84351	0.50704
3754.91494	0.50247
3752.98638	0.50003
3751.05781	0.50668
3749.12925	0.51040
3747.20069	0.50754
3745.27212	0.51034
3743.34356	0.51349
3741.41499	0.50777
3739.48643	0.50050
3737.55786	0.49921
3735.62930	0.50830
3733.70074	0.51618
3731.77217	0.51334
3729.84361	0.50740
3727.91504	0.50391
3725.98648	0.50476
3724.05791	0.50742
3722.12935	0.50917
3720.20078	0.50989
3718.27222	0.50849
3716.34366	0.50465
3714.41509	0.50088
3712.48653	0.50268
3710.55796	0.50912
3708.62940	0.50963
3706.70083	0.50701
3704.77227	0.50492
3702.84370	0.50489
3700.91514	0.50587
3698.98658	0.50518
3697.05801	0.50407
3695.12945	0.50222
3693.20088	0.49889
3691.27232	0.49831
3689.34375	0.50503
3687.41519	0.50969
3685.48662	0.50900
3683.55806	0.50790
3681.62950	0.50784
3679.70093	0.50758
3677.77237	0.50761
3675.84380	0.51445
3673.91524	0.51979
3671.98667	0.51824
3670.05811	0.52232
3668.12954	0.52714
3666.20098	0.52571
3664.27242	0.52424
3662.34385	0.52492
3660.41529	0.52656
3658.48672	0.52981
3656.55816	0.53662
3654.62959	0.53982
3652.70103	0.53638
3650.77246	0.53719
3648.84390	0.55425
3646.91534	0.56545
3644.98677	0.56467
3643.05821	0.56294
3641.12964	0.56421
3639.20108	0.56814
3637.27251	0.57215
3635.34395	0.57429
3633.41538	0.57457
3631.48682	0.57490
3629.55826	0.58348
3627.62969	0.59849
3625.70113	0.60280
3623.77256	0.60193
3621.84400	0.60239
3619.91543	0.60876
3617.98687	0.61640
3616.05830	0.61738
3614.12974	0.61919
3612.20118	0.62443
3610.27261	0.62878
3608.34405	0.63528
3606.41548	0.64176
3604.48692	0.64319
3602.55835	0.64478
3600.62979	0.65027
3598.70123	0.65598
3596.77266	0.66106
3594.84410	0.66875
3592.91553	0.67500
3590.98697	0.67506
3589.05840	0.67539
3587.12984	0.68518
3585.20127	0.69616
3583.27271	0.70087
3581.34415	0.70359
3579.41558	0.70688
3577.48702	0.71041
3575.55845	0.71484
3573.62989	0.72028
3571.70132	0.72392
3569.77276	0.72608
3567.84419	0.73428
3565.91563	0.74882
3563.98707	0.75625
3562.05850	0.75987
3560.12994	0.76497
3558.20137	0.76995
3556.27281	0.77274
3554.34424	0.77520
3552.41568	0.78136
3550.48711	0.78950
3548.55855	0.79592
3546.62999	0.80149
3544.70142	0.80717
3542.77286	0.81351
3540.84429	0.82114
3538.91573	0.83007
3536.98716	0.83866
3535.05860	0.84377
3533.13003	0.84561
3531.20147	0.84930
3529.27291	0.85863
3527.34434	0.86805
3525.41578	0.87149
3523.48721	0.87479
3521.55865	0.88236
3519.63008	0.89081
3517.70152	0.89876
3515.77295	0.90805
3513.84439	0.91907
3511.91583	0.93029
3509.98726	0.94142
3508.05870	0.95012
3506.13013	0.95365
3504.20157	0.95875
3502.27300	0.97253
3500.34444	0.98905
3498.41587	1.00227
3496.48731	1.01263
3494.55875	1.02145
3492.63018	1.03116
3490.70162	1.04289
3488.77305	1.05400
3486.84449	1.06169
3484.91592	1.06576
3482.98736	1.06946
3481.05879	1.07624
3479.13023	1.08317
3477.20167	1.08734
3475.27310	1.08988
3473.34454	1.09134
3471.41597	1.09201
3469.48741	1.09485
3467.55884	1.10243
3465.63028	1.11065
3463.70171	1.11430
3461.77315	1.11535
3459.84459	1.11978
3457.91602	1.12955
3455.98746	1.13957
3454.05889	1.14534
3452.13033	1.14826
3450.20176	1.15020
3448.27320	1.15324
3446.34464	1.16050
3444.41607	1.17003
3442.48751	1.17512
3440.55894	1.17238
3438.63038	1.16798
3436.70181	1.16972
3434.77325	1.17600
3432.84468	1.18051
3430.91612	1.18247
3428.98756	1.18316
3427.05899	1.18018
3425.13043	1.17471
3423.20186	1.17246
3421.27330	1.17404
3419.34473	1.17497
3417.41617	1.17418
3415.48760	1.17540
3413.55904	1.18059
3411.63048	1.18633
3409.70191	1.18662
3407.77335	1.18165
3405.84478	1.17963
3403.91622	1.18321
3401.98765	1.18549
3400.05909	1.18360
3398.13052	1.18215
3396.20196	1.18225
3394.27340	1.18221
3392.34483	1.18305
3390.41627	1.18391
3388.48770	1.18377
3386.55914	1.18555
3384.63057	1.19019
3382.70201	1.19433
3380.77344	1.19570
3378.84488	1.19421
3376.91632	1.19093
3374.98775	1.19154
3373.05919	1.20086
3371.13062	1.21175
3369.20206	1.21450
3367.27349	1.21263
3365.34493	1.21186
3363.41636	1.21045
3361.48780	1.20863
3359.55924	1.21037
3357.63067	1.21762
3355.70211	1.22589
3353.77354	1.22880
3351.84498	1.22795
3349.91641	1.22956
3347.98785	1.23691
3346.05928	1.24534
3344.13072	1.24739
3342.20216	1.24605
3340.27359	1.24791
3338.34503	1.24996
3336.41646	1.25094
3334.48790	1.25726
3332.55933	1.26613
3330.63077	1.27201
3328.70220	1.27851
3326.77364	1.28641
3324.84508	1.29302
3322.91651	1.29874
3320.98795	1.30626
3319.05938	1.31833
3317.13082	1.33188
3315.20225	1.33900
3313.27369	1.33911
3311.34513	1.33926
3309.41656	1.34030
3307.48800	1.34133
3305.55943	1.34651
3303.63087	1.35513
3301.70230	1.36153
3299.77374	1.36375
3297.84517	1.36683
3295.91661	1.37579
3293.98805	1.38470
3292.05948	1.38689
3290.13092	1.38863
3288.20235	1.39397
3286.27379	1.39918
3284.34522	1.40230
3282.41666	1.40146
3280.48809	1.40059
3278.55953	1.40344
3276.63097	1.40222
3274.70240	1.39476
3272.77384	1.38795
3270.84527	1.38398
3268.91671	1.38099
3266.98814	1.37622
3265.05958	1.36926
3263.13101	1.36187
3261.20245	1.35365
3259.27389	1.34448
3257.34532	1.33592
3255.41676	1.32620
3253.48819	1.31370
3251.55963	1.29946
3249.63106	1.28292
3247.70250	1.26655
3245.77393	1.25312
3243.84537	1.24022
3241.91681	1.22875
3239.98824	1.22313
3238.05968	1.22017
3236.13111	1.21352
3234.20255	1.20534
3232.27398	1.19930
3230.34542	1.19394
3228.41685	1.18776
3226.48829	1.18012
3224.55973	1.17186
3222.63116	1.16543
3220.70260	1.16099
3218.77403	1.15564
3216.84547	1.14897
3214.91690	1.14397
3212.98834	1.14017
3211.05977	1.13447
3209.13121	1.12586
3207.20265	1.11573
3205.27408	1.10642
3203.34552	1.09898
3201.41695	1.09313
3199.48839	1.08657
3197.55982	1.07881
3195.63126	1.07375
3193.70269	1.07204
3191.77413	1.06993
3189.84557	1.06473
3187.91700	1.05615
3185.98844	1.04641
3184.05987	1.03947
3182.13131	1.03552
3180.20274	1.03107
3178.27418	1.02560
3176.34562	1.01978
3174.41705	1.01320
3172.48849	1.00726
3170.55992	1.00261
3168.63136	0.99791
3166.70279	0.99275
3164.77423	0.98783
3162.84566	0.98342
3160.91710	0.97963
3158.98854	0.97605
3157.05997	0.97109
3155.13141	0.96464
3153.20284	0.95971
3151.27428	0.95828
3149.34571	0.95788
3147.41715	0.95638
3145.48858	0.95432
3143.56002	0.95118
3141.63146	0.94679
3139.70289	0.94280
3137.77433	0.94021
3135.84576	0.93888
3133.91720	0.93848
3131.98863	0.93887
3130.06007	0.93958
3128.13150	0.93968
3126.20294	0.93957
3124.27438	0.93986
3122.34581	0.93945
3120.41725	0.93969
3118.48868	0.94241
3116.56012	0.94528
3114.63155	0.94740
3112.70299	0.94933
3110.77442	0.94988
3108.84586	0.94886
3106.91730	0.94764
3104.98873	0.94726
3103.06017	0.94657
3101.13160	0.94413
3099.20304	0.94124
3097.27447	0.94032
3095.34591	0.94138
3093.41734	0.94104
3091.48878	0.93736
3089.56022	0.93257
3087.63165	0.92971
3085.70309	0.92918
3083.77452	0.92861
3081.84596	0.92661
3079.91739	0.92350
3077.98883	0.91996
3076.06026	0.91645
3074.13170	0.91218
3072.20314	0.90750
3070.27457	0.90415
3068.34601	0.90179
3066.41744	0.89907
3064.48888	0.89573
3062.56031	0.89231
3060.63175	0.88917
3058.70318	0.88536
3056.77462	0.88007
3054.84606	0.87491
3052.91749	0.87142
3050.98893	0.86784
3049.06036	0.86282
3047.13180	0.85789
3045.20323	0.85359
3043.27467	0.84961
3041.34610	0.84654
3039.41754	0.84400
3037.48898	0.84037
3035.56041	0.83550
3033.63185	0.83124
3031.70328	0.82866
3029.77472	0.82699
3027.84615	0.82466
3025.91759	0.82093
3023.98903	0.81758
3022.06046	0.81619
3020.13190	0.81521
3018.20333	0.81287
3016.27477	0.80917
3014.34620	0.80523
3012.41764	0.80243
3010.48907	0.80118
3008.56051	0.80052
3006.63195	0.79878
3004.70338	0.79621
3002.77482	0.79497
3000.84625	0.79532
2998.91769	0.79630
2996.98912	0.79755
2995.06056	0.79905
2993.13199	0.80131
2991.20343	0.80459
2989.27487	0.80850
2987.34630	0.81296
2985.41774	0.81792
2983.48917	0.82303
2981.56061	0.82898
2979.63204	0.83641
2977.70348	0.84434
2975.77491	0.85156
2973.84635	0.85827
2971.91779	0.86561
2969.98922	0.87373
2968.06066	0.88225
2966.13209	0.89034
2964.20353	0.89602
2962.27496	0.89856
2960.34640	0.89833
2958.41783	0.89561
2956.48927	0.89125
2954.56071	0.88566
2952.63214	0.87884
2950.70358	0.87293
2948.77501	0.86989
2946.84645	0.86871
2944.91788	0.87059
2942.98932	0.87816
2941.06075	0.88886
2939.13219	0.89898
2937.20363	0.90906
2935.27506	0.91974
2933.34650	0.92972
2931.41793	0.93929
2929.48937	0.94831
2927.56080	0.95546
2925.63224	0.96247
2923.70367	0.97125
2921.77511	0.97893
2919.84655	0.98126
2917.91798	0.97704
2915.98942	0.96492
2914.06085	0.94433
2912.13229	0.92088
2910.20372	0.90079
2908.27516	0.88550
2906.34659	0.87417
2904.41803	0.86581
2902.48947	0.85956
2900.56090	0.85507
2898.63234	0.85229
2896.70377	0.85009
2894.77521	0.84703
2892.84664	0.84258
2890.91808	0.83753
2888.98952	0.83300
2887.06095	0.82912
2885.13239	0.82606
2883.20382	0.82461
2881.27526	0.82483
2879.34669	0.82523
2877.41813	0.82436
2875.48956	0.82238
2873.56100	0.81936
2871.63244	0.81464
2869.70387	0.80822
2867.77531	0.80115
2865.84674	0.79453
2863.91818	0.78932
2861.98961	0.78663
2860.06105	0.78707
2858.13248	0.79078
2856.20392	0.79727
2854.27536	0.80601
2852.34679	0.81597
2850.41823	0.82089
2848.48966	0.81172
2846.56110	0.78975
2844.63253	0.76565
2842.70397	0.74571
2840.77540	0.73059
2838.84684	0.72010
2836.91828	0.71271
2834.98971	0.70668
2833.06115	0.70119
2831.13258	0.69576
2829.20402	0.69129
2827.27545	0.68831
2825.34689	0.68485
2823.41832	0.67995
2821.48976	0.67555
2819.56120	0.67233
2817.63263	0.66927
2815.70407	0.66625
2813.77550	0.66333
2811.84694	0.66027
2809.91837	0.65734
2807.98981	0.65472
2806.06124	0.65147
2804.13268	0.64734
2802.20412	0.64371
2800.27555	0.64117
2798.34699	0.63941
2796.41842	0.63841
2794.48986	0.63727
2792.56129	0.63501
2790.63273	0.63229
2788.70416	0.63017
2786.77560	0.62836
2784.84704	0.62601
2782.91847	0.62368
2780.98991	0.62258
2779.06134	0.62218
2777.13278	0.62101
2775.20421	0.61894
2773.27565	0.61696
2771.34708	0.61564
2769.41852	0.61461
2767.48996	0.61333
2765.56139	0.61205
2763.63283	0.61119
2761.70426	0.61048
2759.77570	0.60983
2757.84713	0.60920
2755.91857	0.60837
2753.99001	0.60751
2752.06144	0.60675
2750.13288	0.60633
2748.20431	0.60628
2746.27575	0.60584
2744.34718	0.60460
2742.41862	0.60282
2740.49005	0.60119
2738.56149	0.59990
2736.63293	0.59833
2734.70436	0.59660
2732.77580	0.59479
2730.84723	0.59247
2728.91867	0.59045
2726.99010	0.58953
2725.06154	0.58853
2723.13297	0.58615
2721.20441	0.58281
2719.27585	0.57974
2717.34728	0.57747
2715.41872	0.57574
2713.49015	0.57405
2711.56159	0.57223
2709.63302	0.57045
2707.70446	0.56845
2705.77589	0.56629
2703.84733	0.56466
2701.91877	0.56331
2699.99020	0.56190
2698.06164	0.56078
2696.13307	0.55993
2694.20451	0.55926
2692.27594	0.55897
2690.34738	0.55862
2688.41881	0.55757
2686.49025	0.55599
2684.56169	0.55460
2682.63312	0.55373
2680.70456	0.55313
2678.77599	0.55226
2676.84743	0.55083
2674.91886	0.54894
2672.99030	0.54680
2671.06173	0.54502
2669.13317	0.54420
2667.20461	0.54393
2665.27604	0.54340
2663.34748	0.54271
2661.41891	0.54218
2659.49035	0.54147
2657.56178	0.54044
2655.63322	0.53969
2653.70465	0.53959
2651.77609	0.53947
2649.84753	0.53882
2647.91896	0.53826
2645.99040	0.53838
2644.06183	0.53867
2642.13327	0.53828
2640.20470	0.53725
2638.27614	0.53620
2636.34757	0.53567
2634.41901	0.53556
2632.49045	0.53511
2630.56188	0.53460
2628.63332	0.53450
2626.70475	0.53403
2624.77619	0.53280
2622.84762	0.53145
2620.91906	0.53056
2618.99049	0.52991
2617.06193	0.52920
2615.13337	0.52891
2613.20480	0.52899
2611.27624	0.52870
2609.34767	0.52796
2607.41911	0.52721
2605.49054	0.52676
2603.56198	0.52636
2601.63342	0.52549
2599.70485	0.52434
2597.77629	0.52345
2595.84772	0.52290
2593.91916	0.52256
2591.99059	0.52198
2590.06203	0.52085
2588.13346	0.51953
2586.20490	0.51815
2584.27634	0.51669
2582.34777	0.51530
2580.41921	0.51389
2578.49064	0.51234
2576.56208	0.51076
2574.63351	0.50922
2572.70495	0.50783
2570.77638	0.50658
2568.84782	0.50504
2566.91926	0.50328
2564.99069	0.50229
2563.06213	0.50198
2561.13356	0.50125
2559.20500	0.50026
2557.27643	0.49963
2555.34787	0.49901
2553.41930	0.49820
2551.49074	0.49755
2549.56218	0.49726
2547.63361	0.49700
2545.70505	0.49630
2543.77648	0.49567
2541.84792	0.49557
2539.91935	0.49548
2537.99079	0.49527
2536.06222	0.49530
2534.13366	0.49522
2532.20510	0.49456
2530.27653	0.49360
2528.34797	0.49281
2526.41940	0.49243
2524.49084	0.49246
2522.56227	0.49252
2520.63371	0.49242
2518.70514	0.49211
2516.77658	0.49164
2514.84802	0.49118
2512.91945	0.49078
2510.99089	0.49019
2509.06232	0.48939
2507.13376	0.48877
2505.20519	0.48825
2503.27663	0.48779
2501.34806	0.48777
2499.41950	0.48775
2497.49094	0.48709
2495.56237	0.48601
2493.63381	0.48497
2491.70524	0.48441
2489.77668	0.48451
2487.84811	0.48463
2485.91955	0.48401
2483.99098	0.48276
2482.06242	0.48163
2480.13386	0.48108
2478.20529	0.48090
2476.27673	0.48072
2474.34816	0.48020
2472.41960	0.47911
2470.49103	0.47796
2468.56247	0.47735
2466.63391	0.47716
2464.70534	0.47693
2462.77678	0.47644
2460.84821	0.47597
2458.91965	0.47563
2456.99108	0.47512
2455.06252	0.47448
2453.13395	0.47420
2451.20539	0.47416
2449.27683	0.47378
2447.34826	0.47305
2445.41970	0.47232
2443.49113	0.47180
2441.56257	0.47159
2439.63400	0.47159
2437.70544	0.47140
2435.77687	0.47103
2433.84831	0.47087
2431.91975	0.47072
2429.99118	0.47022
2428.06262	0.46953
2426.13405	0.46908
2424.20549	0.46892
2422.27692	0.46867
2420.34836	0.46835
2418.41979	0.46818
2416.49123	0.46796
2414.56267	0.46752
2412.63410	0.46680
2410.70554	0.46596
2408.77697	0.46521
2406.84841	0.46444
2404.91984	0.46358
2402.99128	0.46278
2401.06271	0.46191
2399.13415	0.46085
2397.20559	0.46002
2395.27702	0.45963
2393.34846	0.45919
2391.41989	0.45837
2389.49133	0.45756
2387.56276	0.45722
2385.63420	0.45702
2383.70563	0.45646
2381.77707	0.45592
2379.84851	0.45611
2377.91994	0.45684
2375.99138	0.45748
2374.06281	0.45857
2372.13425	0.46165
2370.20568	0.46699
2368.27712	0.47277
2366.34855	0.47645
2364.41999	0.47823
2362.49143	0.48080
2360.56286	0.48300
2358.63430	0.48177
2356.70573	0.47865
2354.77717	0.47673
2352.84860	0.47514
2350.92004	0.47189
2348.99147	0.46832
2347.06291	0.46605
2345.13435	0.46542
2343.20578	0.46613
2341.27722	0.46762
2339.34865	0.46875
2337.42009	0.46871
2335.49152	0.46764
2333.56296	0.46623
2331.63440	0.46483
2329.70583	0.46410
2327.77727	0.46351
2325.84870	0.46133
2323.92014	0.45942
2321.99157	0.45971
2320.06301	0.46025
2318.13444	0.45982
2316.20588	0.45906
2314.27732	0.45831
2312.34875	0.45762
2310.42019	0.45707
2308.49162	0.45640
2306.56306	0.45533
2304.63449	0.45434
2302.70593	0.45396
2300.77736	0.45378
2298.84880	0.45298
2296.92024	0.45185
2294.99167	0.45119
2293.06311	0.45090
2291.13454	0.45045
2289.20598	0.44979
2287.27741	0.44935
2285.34885	0.44921
2283.42028	0.44898
2281.49172	0.44873
2279.56316	0.44877
2277.63459	0.44891
2275.70603	0.44912
2273.77746	0.44977
2271.84890	0.45064
2269.92033	0.45153
2267.99177	0.45240
2266.06320	0.45291
2264.13464	0.45306
2262.20608	0.45311
2260.27751	0.45301
2258.34895	0.45275
2256.42038	0.45247
2254.49182	0.45233
2252.56325	0.45242
2250.63469	0.45241
2248.70612	0.45186
2246.77756	0.45094
2244.84900	0.45021
2242.92043	0.44994
2240.99187	0.44986
2239.06330	0.44971
2237.13474	0.44948
2235.20617	0.44896
2233.27761	0.44824
2231.34904	0.44784
2229.42048	0.44782
2227.49192	0.44787
2225.56335	0.44798
2223.63479	0.44822
2221.70622	0.44851
2219.77766	0.44857
2217.84909	0.44834
2215.92053	0.44799
2213.99196	0.44779
2212.06340	0.44793
2210.13484	0.44811
2208.20627	0.44814
2206.27771	0.44824
2204.34914	0.44835
2202.42058	0.44812
2200.49201	0.44769
2198.56345	0.44745
2196.63488	0.44747
2194.70632	0.44759
2192.77776	0.44764
2190.84919	0.44754
2188.92063	0.44756
2186.99206	0.44795
2185.06350	0.44851
2183.13493	0.44894
2181.20637	0.44929
2179.27781	0.44971
2177.34924	0.45025
2175.42068	0.45099
2173.49211	0.45178
2171.56355	0.45244
2169.63498	0.45310
2167.70642	0.45385
2165.77785	0.45432
2163.84929	0.45440
2161.92073	0.45435
2159.99216	0.45435
2158.06360	0.45429
2156.13503	0.45401
2154.20647	0.45343
2152.27790	0.45273
2150.34934	0.45203
2148.42077	0.45127
2146.49221	0.45033
2144.56365	0.44947
2142.63508	0.44898
2140.70652	0.44869
2138.77795	0.44831
2136.84939	0.44784
2134.92082	0.44750
2132.99226	0.44737
2131.06369	0.44728
2129.13513	0.44730
2127.20657	0.44769
2125.27800	0.44823
2123.34944	0.44856
2121.42087	0.44870
2119.49231	0.44875
2117.56374	0.44886
2115.63518	0.44919
2113.70661	0.44960
2111.77805	0.44986
2109.84949	0.44994
2107.92092	0.45002
2105.99236	0.45020
2104.06379	0.45034
2102.13523	0.45042
2100.20666	0.45062
2098.27810	0.45079
2096.34953	0.45074
2094.42097	0.45064
2092.49241	0.45067
2090.56384	0.45094
2088.63528	0.45136
2086.70671	0.45172
2084.77815	0.45200
2082.84958	0.45214
2080.92102	0.45225
2078.99245	0.45241
2077.06389	0.45259
2075.13533	0.45283
2073.20676	0.45280
2071.27820	0.45221
2069.34963	0.45153
2067.42107	0.45118
2065.49250	0.45092
2063.56394	0.45049
2061.63537	0.44987
2059.70681	0.44918
2057.77825	0.44858
2055.84968	0.44803
2053.92112	0.44726
2051.99255	0.44638
2050.06399	0.44591
2048.13542	0.44582
2046.20686	0.44556
2044.27830	0.44521
2042.34973	0.44528
2040.42117	0.44568
2038.49260	0.44603
2036.56404	0.44622
2034.63547	0.44632
2032.70691	0.44655
2030.77834	0.44702
2028.84978	0.44757
2026.92122	0.44800
2024.99265	0.44819
2023.06409	0.44815
2021.13552	0.44794
2019.20696	0.44779
2017.27839	0.44791
2015.34983	0.44795
2013.42126	0.44766
2011.49270	0.44740
2009.56414	0.44728
2007.63557	0.44694
2005.70701	0.44644
2003.77844	0.44603
2001.84988	0.44576
1999.92131	0.44579
1997.99275	0.44586
1996.06418	0.44557
1994.13562	0.44524
1992.20706	0.44525
1990.27849	0.44520
1988.34993	0.44477
1986.42136	0.44435
1984.49280	0.44408
1982.56423	0.44382
1980.63567	0.44337
1978.70710	0.44274
1976.77854	0.44222
1974.84998	0.44181
1972.92141	0.44117
1970.99285	0.44028
1969.06428	0.43947
1967.13572	0.43906
1965.20715	0.43887
1963.27859	0.43838
1961.35002	0.43763
1959.42146	0.43702
1957.49290	0.43670
1955.56433	0.43660
1953.63577	0.43661
1951.70720	0.43666
1949.77864	0.43670
1947.85007	0.43661
1945.92151	0.43656
1943.99294	0.43702
1942.06438	0.43801
1940.13582	0.43871
1938.20725	0.43902
1936.27869	0.43939
1934.35012	0.43990
1932.42156	0.44068
1930.49299	0.44153
1928.56443	0.44207
1926.63586	0.44228
1924.70730	0.44257
1922.77874	0.44287
1920.85017	0.44251
1918.92161	0.44232
1916.99304	0.44311
1915.06448	0.44347
1913.13591	0.44290
1911.20735	0.44235
1909.27878	0.44228
1907.35022	0.44222
1905.42166	0.44190
1903.49309	0.44160
1901.56453	0.44138
1899.63596	0.44111
1897.70740	0.44075
1895.77883	0.44068
1893.85027	0.44078
1891.92171	0.44047
1889.99314	0.44051
1888.06458	0.44105
1886.13601	0.44114
1884.20745	0.44107
1882.27888	0.44130
1880.35032	0.44151
1878.42175	0.44152
1876.49319	0.44152
1874.56463	0.44135
1872.63606	0.44081
1870.70750	0.44072
1868.77893	0.44225
1866.85037	0.44372
1864.92180	0.44347
1862.99324	0.44266
1861.06467	0.44226
1859.13611	0.44228
1857.20755	0.44223
1855.27898	0.44187
1853.35042	0.44147
1851.42185	0.44117
1849.49329	0.44078
1847.56472	0.44012
1845.63616	0.44013
1843.70759	0.44135
1841.77903	0.44138
1839.85047	0.44011
1837.92190	0.43935
1835.99334	0.43915
1834.06477	0.43835
1832.13621	0.43746
1830.20764	0.43805
1828.27908	0.43901
1826.35051	0.43904
1824.42195	0.43897
1822.49339	0.43833
1820.56482	0.43732
1818.63626	0.43694
1816.70769	0.43689
1814.77913	0.43673
1812.85056	0.43677
1810.92200	0.43729
1808.99343	0.43765
1807.06487	0.43719
1805.13631	0.43641
1803.20774	0.43620
1801.27918	0.43713
1799.35061	0.43827
1797.42205	0.43833
1795.49348	0.43769
1793.56492	0.43787
1791.63635	0.43957
1789.70779	0.43995
1787.77923	0.43897
1785.85066	0.43844
1783.92210	0.43855
1781.99353	0.43904
1780.06497	0.43992
1778.13640	0.44019
1776.20784	0.43950
1774.27927	0.43936
1772.35071	0.44135
1770.42215	0.44350
1768.49358	0.44446
1766.56502	0.44494
1764.63645	0.44491
1762.70789	0.44573
1760.77932	0.44802
1758.85076	0.45014
1756.92220	0.45306
1754.99363	0.45610
1753.06507	0.45860
1751.13650	0.46391
1749.20794	0.47304
1747.27937	0.48094
1745.35081	0.48639
1743.42224	0.49107
1741.49368	0.49613
1739.56512	0.50133
1737.63655	0.50422
1735.70799	0.50638
1733.77942	0.51274
1731.85086	0.51787
1729.92229	0.51956
1727.99373	0.52139
1726.06516	0.52358
1724.13660	0.52678
1722.20804	0.52972
1720.27947	0.53184
1718.35091	0.53765
1716.42234	0.55068
1714.49378	0.56050
1712.56521	0.56668
1710.63665	0.57404
1708.70808	0.58406
1706.77952	0.60134
1704.85096	0.62603
1702.92239	0.64828
1700.99383	0.68080
1699.06526	0.73616
1697.13670	0.78965
1695.20813	0.83992
1693.27957	0.87563
1691.35100	0.90476
1689.42244	0.94320
1687.49388	0.98033
1685.56531	1.01857
1683.63675	1.08478
1681.70818	1.13748
1679.77962	1.16853
1677.85105	1.19854
1675.92249	1.23664
1673.99392	1.27924
1672.06536	1.31168
1670.13680	1.34808
1668.20823	1.38947
1666.27967	1.41249
1664.35110	1.43414
1662.42254	1.46621
1660.49397	1.48944
1658.56541	1.49855
1656.63684	1.50256
1654.70828	1.50917
1652.77972	1.52497
1650.85115	1.53033
1648.92259	1.52669
1646.99402	1.52051
1645.06546	1.51768
1643.13689	1.51662
1641.20833	1.51541
1639.27976	1.51294
1637.35120	1.51052
1635.42264	1.51038
1633.49407	1.50698
1631.56551	1.49809
1629.63694	1.48415
1627.70838	1.46943
1625.77981	1.45645
1623.85125	1.43604
1621.92269	1.40632
1619.99412	1.38136
1618.06556	1.35427
1616.13699	1.31086
1614.20843	1.26998
1612.27986	1.23647
1610.35130	1.20269
1608.42273	1.16941
1606.49417	1.14114
1604.56561	1.11898
1602.63704	1.10213
1600.70848	1.09096
1598.77991	1.08326
1596.85135	1.07677
1594.92278	1.07197
1592.99422	1.07016
1591.06565	1.07165
1589.13709	1.07595
1587.20853	1.08307
1585.27996	1.09311
1583.35140	1.10582
1581.42283	1.12000
1579.49427	1.13459
1577.56570	1.15519
1575.63714	1.18473
1573.70857	1.20320
1571.78001	1.21723
1569.85145	1.24294
1567.92288	1.26897
1565.99432	1.28516
1564.06575	1.30140
1562.13719	1.31364
1560.20862	1.32376
1558.28006	1.35619
1556.35149	1.38072
1554.42293	1.38911
1552.49437	1.39459
1550.56580	1.39960
1548.63724	1.40173
1546.70867	1.39897
1544.78011	1.39331
1542.85154	1.38655
1540.92298	1.37843
1538.99441	1.37112
1537.06585	1.36597
1535.13729	1.35780
1533.20872	1.34637
1531.28016	1.33699
1529.35159	1.32954
1527.42303	1.32123
1525.49446	1.31297
1523.56590	1.30635
1521.63733	1.30254
1519.70877	1.30441
1517.78021	1.30231
1515.85164	1.29040
1513.92308	1.27462
1511.99451	1.25768
1510.06595	1.23958
1508.13738	1.21151
1506.20882	1.16318
1504.28025	1.13416
1502.35169	1.11421
1500.42313	1.09066
1498.49456	1.06009
1496.56600	1.02566
1494.63743	0.99910
1492.70887	0.98028
1490.78030	0.95974
1488.85174	0.93323
1486.92317	0.91147
1484.99461	0.89703
1483.06605	0.88701
1481.13748	0.88087
1479.20892	0.87912
1477.28035	0.88186
1475.35179	0.88956
1473.42322	0.90756
1471.49466	0.93228
1469.56610	0.94728
1467.63753	0.95717
1465.70897	0.96986
1463.78040	0.98351
1461.85184	0.99104
1459.92327	0.99567
1457.99471	1.00730
1456.06614	1.02554
1454.13758	1.03200
1452.20902	1.03256
1450.28045	1.03169
1448.35189	1.02956
1446.42332	1.02554
1444.49476	1.02053
1442.56619	1.01551
1440.63763	1.01069
1438.70906	1.00476
1436.78050	0.99471
1434.85194	0.98299
1432.92337	0.97418
1430.99481	0.96597
1429.06624	0.95691
1427.13768	0.94977
1425.20911	0.94662
1423.28055	0.94692
1421.35198	0.94882
1419.42342	0.95292
1417.49486	0.95786
1415.56629	0.95960
1413.63773	0.95944
1411.70916	0.95814
1409.78060	0.95605
1407.85203	0.95418
1405.92347	0.95333
1403.99490	0.95365
1402.06634	0.95404
1400.13778	0.95383
1398.20921	0.95321
1396.28065	0.95303
1394.35208	0.95321
1392.42352	0.95354
1390.49495	0.95573
1388.56639	0.96311
1386.63782	0.97728
1384.70926	0.99294
1382.78070	1.00730
1380.85213	1.01984
1378.92357	1.02742
1376.99500	1.02785
1375.06644	1.02024
1373.13787	1.00563
1371.20931	0.98814
1369.28074	0.96738
1367.35218	0.94376
1365.42362	0.92143
1363.49505	0.90021
1361.56649	0.88197
1359.63792	0.87031
1357.70936	0.86220
1355.78079	0.85545
1353.85223	0.85059
1351.92366	0.84760
1349.99510	0.84573
1348.06654	0.84417
1346.13797	0.84260
1344.20941	0.84181
1342.28084	0.84245
1340.35228	0.84522
1338.42371	0.84997
1336.49515	0.85543
1334.56659	0.86240
1332.63802	0.87198
1330.70946	0.88355
1328.78089	0.89504
1326.85233	0.90427
1324.92376	0.91021
1322.99520	0.91411
1321.06663	0.91827
1319.13807	0.92353
1317.20951	0.92841
1315.28094	0.93187
1313.35238	0.93509
1311.42381	0.93840
1309.49525	0.94060
1307.56668	0.94131
1305.63812	0.94062
1303.70955	0.93872
1301.78099	0.93586
1299.85243	0.93150
1297.92386	0.92514
1295.99530	0.91783
1294.06673	0.91103
1292.13817	0.90563
1290.20960	0.90192
1288.28104	0.89963
1286.35247	0.89847
1284.42391	0.89807
1282.49535	0.89794
1280.56678	0.89834
1278.63822	0.90002
1276.70965	0.90325
1274.78109	0.90767
1272.85252	0.91377
1270.92396	0.92272
1268.99539	0.93409
1267.06683	0.94562
1265.13827	0.95549
1263.20970	0.96305
1261.28114	0.96829
1259.35257	0.97161
1257.42401	0.97380
1255.49544	0.97542
1253.56688	0.97674
1251.63831	0.97776
1249.70975	0.97793
1247.78119	0.97711
1245.85262	0.97580
1243.92406	0.97404
1241.99549	0.97188
1240.06693	0.96926
1238.13836	0.96547
1236.20980	0.96007
1234.28123	0.95358
1232.35267	0.94674
1230.42411	0.93925
1228.49554	0.93041
1226.56698	0.92036
1224.63841	0.90959
1222.70985	0.89870
1220.78128	0.88874
1218.85272	0.88075
1216.92415	0.87471
1214.99559	0.87012
1213.06703	0.86790
1211.13846	0.86958
1209.20990	0.87385
1207.28133	0.87679
1205.35277	0.87552
1203.42420	0.86998
1201.49564	0.86187
1199.56708	0.85212
1197.63851	0.84104
1195.70995	0.83011
1193.78138	0.82084
1191.85282	0.81383
1189.92425	0.80924
1187.99569	0.80647
1186.06712	0.80504
1184.13856	0.80545
1182.21000	0.80787
1180.28143	0.81221
1178.35287	0.81901
1176.42430	0.82870
1174.49574	0.84059
1172.56717	0.85347
1170.63861	0.86751
1168.71004	0.88475
1166.78148	0.90620
1164.85292	0.93015
1162.92435	0.95309
1160.99579	0.97179
1159.06722	0.98396
1157.13866	0.98699
1155.21009	0.97964
1153.28153	0.96414
1151.35296	0.94427
1149.42440	0.92268
1147.49584	0.90145
1145.56727	0.88322
1143.63871	0.86919
1141.71014	0.85894
1139.78158	0.85229
1137.85301	0.84933
1135.92445	0.84945
1133.99588	0.85266
1132.06732	0.86031
1130.13876	0.87322
1128.21019	0.89079
1126.28163	0.91107
1124.35306	0.93132
1122.42450	0.95027
1120.49593	0.96748
1118.56737	0.98123
1116.63880	0.99005
1114.71024	0.99383
1112.78168	0.99280
1110.85311	0.98796
1108.92455	0.98164
1106.99598	0.97607
1105.06742	0.97138
1103.13885	0.96750
1101.21029	0.96552
1099.28172	0.96497
1097.35316	0.96631
1095.42460	0.97262
1093.49603	0.98402
1091.56747	0.99803
1089.63890	1.01467
1087.71034	1.03600
1085.78177	1.06150
1083.85321	1.08700
1081.92464	1.10958
1079.99608	1.12837
1078.06752	1.14356
1076.13895	1.15590
1074.21039	1.16165
1072.28182	1.15704
1070.35326	1.14475
1068.42469	1.12907
1066.49613	1.11280
1064.56756	1.09621
1062.63900	1.07868
1060.71044	1.06108
1058.78187	1.04309
1056.85331	1.02559
1054.92474	1.01239
1052.99618	1.00435
1051.06761	0.99874
1049.13905	0.99467
1047.21049	0.99418
1045.28192	0.99876
1043.35336	1.00778
1041.42479	1.01966
1039.49623	1.03255
1037.56766	1.04412
1035.63910	1.05240
1033.71053	1.05779
1031.78197	1.06200
1029.85341	1.06345
1027.92484	1.05977
1025.99628	1.05241
1024.06771	1.04320
1022.13915	1.03350
1020.21058	1.02563
1018.28202	1.01978
1016.35345	1.01363
1014.42489	1.00417
1012.49633	0.98914
1010.56776	0.96903
1008.63920	0.94643
1006.71063	0.92280
1004.78207	0.89810
1002.85350	0.87416
1000.92494	0.85378
998.99637	0.83706
997.06781	0.82328
995.13925	0.81255
993.21068	0.80354
991.28212	0.79409
989.35355	0.78443
987.42499	0.77588
985.49642	0.76864
983.56786	0.76252
981.63929	0.75810
979.71073	0.75623
977.78217	0.75608
975.85360	0.75513
973.92504	0.75147
971.99647	0.74532
970.06791	0.73769
968.13934	0.72888
966.21078	0.72030
964.28221	0.71464
962.35365	0.71335
960.42509	0.71704
958.49652	0.72566
956.56796	0.73600
954.63939	0.74248
952.71083	0.74225
950.78226	0.73648
948.85370	0.72736
946.92513	0.71745
944.99657	0.70938
943.06801	0.70379
941.13944	0.69962
939.21088	0.69613
937.28231	0.69297
935.35375	0.68970
933.42518	0.68657
931.49662	0.68409
929.56805	0.68185
927.63949	0.67929
925.71093	0.67688
923.78236	0.67536
921.85380	0.67406
919.92523	0.67157
917.99667	0.66804
916.06810	0.66469
914.13954	0.66179
912.21098	0.65942
910.28241	0.65823
908.35385	0.65874
906.42528	0.66098
904.49672	0.66468
902.56815	0.66955
900.63959	0.67459
898.71102	0.67846
896.78246	0.68115
894.85390	0.68354
892.92533	0.68594
890.99677	0.68772
889.06820	0.68834
887.13964	0.68804
885.21107	0.68734
883.28251	0.68648
881.35394	0.68605
879.42538	0.68631
877.49682	0.68601
875.56825	0.68470
873.63969	0.68352
871.71112	0.68251
869.78256	0.68085
867.85399	0.67891
865.92543	0.67748
863.99686	0.67682
862.06830	0.67735
860.13974	0.67912
858.21117	0.68154
856.28261	0.68480
854.35404	0.68928
852.42548	0.69430
850.49691	0.69926
848.56835	0.70434
846.63978	0.70960
844.71122	0.71454
842.78266	0.71959
840.85409	0.72570
838.92553	0.73189
836.99696	0.73606
835.06840	0.73836
833.13983	0.74060
831.21127	0.74250
829.28270	0.74287
827.35414	0.74194
825.42558	0.73959
823.49701	0.73540
821.56845	0.73045
819.63988	0.72594
817.71132	0.72208
815.78275	0.71855
813.85419	0.71522
811.92562	0.71243
809.99706	0.70988
808.06850	0.70711
806.13993	0.70500
804.21137	0.70444
802.28280	0.70517
800.35424	0.70655
798.42567	0.70766
796.49711	0.70800
794.56854	0.70887
792.63998	0.71128
790.71142	0.71392
788.78285	0.71575
786.85429	0.71728
784.92572	0.71867
782.99716	0.71972
781.06859	0.72059
779.14003	0.72115
777.21147	0.72102
775.28290	0.71990
773.35434	0.71784
771.42577	0.71625
769.49721	0.71609
767.56864	0.71610
765.64008	0.71542
763.71151	0.71489
761.78295	0.71513
759.85439	0.71606
757.92582	0.71723
755.99726	0.71813
754.06869	0.71926
752.14013	0.72111
750.21156	0.72281
748.28300	0.72346
746.35443	0.72302
744.42587	0.72201
742.49731	0.72110
740.56874	0.72050
738.64018	0.72014
736.71161	0.72020
734.78305	0.72042
732.85448	0.72010
730.92592	0.72001
728.99735	0.72132
727.06879	0.72331
725.14023	0.72526
723.21166	0.72808
721.28310	0.73244
719.35453	0.73717
717.42597	0.74117
715.49740	0.74502
713.56884	0.74902
711.64027	0.75299
709.71171	0.75777
707.78315	0.76347
705.85458	0.76944
703.92602	0.77510
701.99745	0.77862
700.06889	0.78035
698.14032	0.78297
696.21176	0.78559
694.28319	0.78575
692.35463	0.78371
690.42607	0.78083
688.49750	0.77799
686.56894	0.77501
684.64037	0.77154
682.71181	0.76871
680.78324	0.76694
678.85468	0.76493
676.92611	0.76279
674.99755	0.76104
673.06899	0.75975
671.14042	0.76046
669.21186	0.76475
667.28329	0.76844
665.35473	0.76743
663.42616	0.76587
661.49760	0.76539
659.56903	0.76486
657.64047	0.76224
655.71191	0.75771
653.78334	0.75257
651.85478	0.74768
649.92621	0.74303
647.99765	0.73722
646.06908	0.73013
644.14052	0.72348
642.21195	0.71840
640.28339	0.71520
638.35483	0.71243
636.42626	0.70765
634.49770	0.70094
632.56913	0.69401
630.64057	0.68841
628.71200	0.68559
626.78344	0.68558
624.85488	0.68725
622.92631	0.69037
620.99775	0.69597
619.06918	0.70453
617.14062	0.71477
615.21205	0.72440
613.28349	0.73329
611.35492	0.74300
609.42636	0.75441
607.49780	0.76680
605.56923	0.77735
603.64067	0.78510
601.71210	0.79143
599.78354	0.79673
