3997.91406	0.37187
3995.98550	0.37236
3994.05693	0.37366
3992.12837	0.37396
3990.19980	0.37307
3988.27124	0.37195
3986.34268	0.37099
3984.41411	0.36971
3982.48555	0.36829
3980.55698	0.36822
3978.62842	0.36953
3976.69985	0.37047
3974.77129	0.37060
3972.84272	0.37064
3970.91416	0.37128
3968.98560	0.37239
3967.05703	0.37248
3965.12847	0.37131
3963.19990	0.37043
3961.27134	0.36937
3959.34277	0.36731
3957.41421	0.36583
3955.48564	0.36504
3953.55708	0.36419
3951.62852	0.36438
3949.69995	0.36680
3947.77139	0.36859
3945.84282	0.36649
3943.91426	0.36432
3941.98569	0.36498
3940.05713	0.36485
3938.12856	0.36312
3936.20000	0.36186
3934.27144	0.36232
3932.34287	0.36465
3930.41431	0.36556
3928.48574	0.36276
3926.55718	0.36012
3924.62861	0.36041
3922.70005	0.36017
3920.77148	0.35906
3918.84292	0.36062
3916.91436	0.36338
3914.98579	0.36278
3913.05723	0.35939
3911.12866	0.35644
3909.20010	0.35366
3907.27153	0.35073
3905.34297	0.35212
3903.41440	0.35855
3901.48584	0.36310
3899.55728	0.36566
3897.62871	0.36481
3895.70015	0.35975
3893.77158	0.35634
3891.84302	0.35889
3889.91445	0.35899
3887.98589	0.35448
3886.05733	0.35445
3884.12876	0.35699
3882.20020	0.35621
3880.27163	0.35739
3878.34307	0.35662
3876.41450	0.35255
3874.48594	0.35079
3872.55737	0.35176
3870.62881	0.35620
3868.70025	0.35920
3866.77168	0.35515
3864.84312	0.35289
3862.91455	0.35490
3860.98599	0.35336
3859.05742	0.34845
3857.12886	0.34340
3855.20029	0.34522
3853.27173	0.36177
3851.34317	0.36521
3849.41460	0.35612
3847.48604	0.34790
3845.55747	0.34299
3843.62891	0.34167
3841.70034	0.34193
3839.77178	0.34384
3837.84321	0.34775
3835.91465	0.34812
3833.98609	0.34687
3832.05752	0.34695
3830.12896	0.34633
3828.20039	0.34534
3826.27183	0.34489
3824.34326	0.34221
3822.41470	0.34167
3820.48613	0.34730
3818.55757	0.34696
3816.62901	0.34587
3814.70044	0.34748
3812.77188	0.34458
3810.84331	0.33939
3808.91475	0.33747
3806.98618	0.34182
3805.05762	0.34371
3803.12905	0.34330
3801.20049	0.34852
3799.27193	0.34894
3797.34336	0.34588
3795.41480	0.34525
3793.48623	0.34332
3791.55767	0.34040
3789.62910	0.33798
3787.70054	0.33606
3785.77197	0.33632
3783.84341	0.33686
3781.91485	0.33518
3779.98628	0.33624
3778.05772	0.33972
3776.12915	0.33871
3774.20059	0.33495
3772.27202	0.33331
3770.34346	0.33614
3768.41489	0.33797
3766.48633	0.33624
3764.55777	0.33428
3762.62920	0.33125
3760.70064	0.33056
3758.77207	0.33502
3756.84351	0.33537
3754.91494	0.32958
3752.98638	0.32610
3751.05781	0.33494
3749.12925	0.34191
3747.20069	0.33715
3745.27212	0.33667
3743.34356	0.34090
3741.41499	0.33763
3739.48643	0.33149
3737.55786	0.32964
3735.62930	0.33596
3733.70074	0.34397
3731.77217	0.34366
3729.84361	0.33708
3727.91504	0.33120
3725.98648	0.33208
3724.05791	0.33688
3722.12935	0.33824
3720.20078	0.33686
3718.27222	0.33454
3716.34366	0.33014
3714.41509	0.32464
3712.48653	0.32542
3710.55796	0.33461
3708.62940	0.33632
3706.70083	0.33186
3704.77227	0.32803
3702.84370	0.32916
3700.91514	0.33398
3698.98658	0.33493
3697.05801	0.33271
3695.12945	0.32927
3693.20088	0.32462
3691.27232	0.32413
3689.34375	0.33531
3687.41519	0.34422
3685.48662	0.34322
3683.55806	0.33998
3681.62950	0.33807
3679.70093	0.33683
3677.77237	0.33728
3675.84380	0.34728
3673.91524	0.35396
3671.98667	0.35069
3670.05811	0.35557
3668.12954	0.36287
3666.20098	0.36176
3664.27242	0.36048
3662.34385	0.36243
3660.41529	0.36482
3658.48672	0.36729
3656.55816	0.37384
3654.62959	0.37793
3652.70103	0.37476
3650.77246	0.37649
3648.84390	0.39679
3646.91534	0.40913
3644.98677	0.40777
3643.05821	0.40612
3641.12964	0.40793
3639.20108	0.41127
3637.27251	0.41396
3635.34395	0.41646
3633.41538	0.41855
3631.48682	0.42002
3629.55826	0.43096
3627.62969	0.44933
3625.70113	0.45296
3623.77256	0.44997
3621.84400	0.44920
3619.91543	0.45674
3617.98687	0.46762
3616.05830	0.47075
3614.12974	0.47368
3612.20118	0.48020
3610.27261	0.48554
3608.34405	0.49257
3606.41548	0.50051
3604.48692	0.50405
3602.55835	0.50706
3600.62979	0.51348
3598.70123	0.52055
3596.77266	0.52660
3594.84410	0.53408
3592.91553	0.54039
3590.98697	0.54257
3589.05840	0.54884
3587.12984	0.56513
3585.20127	0.57465
3583.27271	0.57509
3581.34415	0.57679
3579.41558	0.58254
3577.48702	0.58915
3575.55845	0.59506
3573.62989	0.60081
3571.70132	0.60439
3569.77276	0.60590
3567.84419	0.61304
3565.91563	0.62709
3563.98707	0.63496
3562.05850	0.63957
3560.12994	0.64593
3558.20137	0.65267
3556.27281	0.65800
3554.34424	0.66378
3552.41568	0.67270
3550.48711	0.68052
3548.55855	0.68530
3546.62999	0.69277
3544.70142	0.70357
3542.77286	0.71155
3540.84429	0.71600
3538.91573	0.72057
3536.98716	0.72795
3535.05860	0.73646
3533.13003	0.74245
3531.20147	0.74658
3529.27291	0.75225
3527.34434	0.75968
3525.41578	0.76674
3523.48721	0.77523
3521.55865	0.78479
3519.63008	0.79123
3517.70152	0.79528
3515.77295	0.79935
3513.84439	0.80367
3511.91583	0.80956
3509.98726	0.81905
3508.05870	0.82929
3506.13013	0.83613
3504.20157	0.84407
3502.27300	0.85700
3500.34444	0.86838
3498.41587	0.87611
3496.48731	0.88322
3494.55875	0.88906
3492.63018	0.89356
3490.70162	0.89995
3488.77305	0.90926
3486.84449	0.91747
3484.91592	0.92165
3482.98736	0.92525
3481.05879	0.93080
3479.13023	0.93510
3477.20167	0.93783
3475.27310	0.94235
3473.34454	0.94918
3471.41597	0.95465
3469.48741	0.95570
3467.55884	0.95515
3465.63028	0.95818
3463.70171	0.96438
3461.77315	0.96974
3459.84459	0.97343
3457.91602	0.97603
3455.98746	0.97760
3454.05889	0.98081
3452.13033	0.98631
3450.20176	0.99032
3448.27320	0.99221
3446.34464	0.99439
3444.41607	0.99650
3442.48751	0.99742
3440.55894	0.99853
3438.63038	1.00284
3436.70181	1.00884
3434.77325	1.01207
3432.84468	1.01432
3430.91612	1.01863
3428.98756	1.02416
3427.05899	1.02913
3425.13043	1.03030
3423.20186	1.02810
3421.27330	1.02872
3419.34473	1.03284
3417.41617	1.03495
3415.48760	1.03448
3413.55904	1.03312
3411.63048	1.03238
3409.70191	1.03537
3407.77335	1.04077
3405.84478	1.04445
3403.91622	1.04691
3401.98765	1.04876
3400.05909	1.04791
3398.13052	1.04586
3396.20196	1.04550
3394.27340	1.04632
3392.34483	1.04834
3390.41627	1.05165
3388.48770	1.05430
3386.55914	1.05617
3384.63057	1.05813
3382.70201	1.05957
3380.77344	1.06215
3378.84488	1.06849
3376.91632	1.07629
3374.98775	1.08107
3373.05919	1.08215
3371.13062	1.08155
3369.20206	1.08012
3367.27349	1.07914
3365.34493	1.08074
3363.41636	1.08440
3361.48780	1.08902
3359.55924	1.09388
3357.63067	1.09716
3355.70211	1.09773
3353.77354	1.09604
3351.84498	1.09577
3349.91641	1.10059
3347.98785	1.10653
3346.05928	1.10779
3344.13072	1.10759
3342.20216	1.11038
3340.27359	1.11354
3338.34503	1.11575
3336.41646	1.11967
3334.48790	1.12559
3332.55933	1.13203
3330.63077	1.13680
3328.70220	1.13687
3326.77364	1.13401
3324.84508	1.13529
3322.91651	1.14322
3320.98795	1.15108
3319.05938	1.15226
3317.13082	1.15038
3315.20225	1.15228
3313.27369	1.15641
3311.34513	1.15848
3309.41656	1.15897
3307.48800	1.16013
3305.55943	1.16254
3303.63087	1.16395
3301.70230	1.16411
3299.77374	1.16486
3297.84517	1.16428
3295.91661	1.16376
3293.98805	1.16684
3292.05948	1.17042
3290.13092	1.17267
3288.20235	1.17567
3286.27379	1.17842
3284.34522	1.18019
3282.41666	1.18156
3280.48809	1.18039
3278.55953	1.17532
3276.63097	1.16956
3274.70240	1.16587
3272.77384	1.16532
3270.84527	1.16722
3268.91671	1.16726
3266.98814	1.16445
3265.05958	1.16229
3263.13101	1.16232
3261.20245	1.16157
3259.27389	1.15468
3257.34532	1.14455
3255.41676	1.13839
3253.48819	1.13519
3251.55963	1.13244
3249.63106	1.12921
3247.70250	1.12287
3245.77393	1.11439
3243.84537	1.10708
3241.91681	1.10181
3239.98824	1.09879
3238.05968	1.09579
3236.13111	1.08956
3234.20255	1.08175
3232.27398	1.07585
3230.34542	1.07435
3228.41685	1.07672
3226.48829	1.07691
3224.55973	1.07118
3222.63116	1.06441
3220.70260	1.06190
3218.77403	1.06148
3216.84547	1.05948
3214.91690	1.05567
3212.98834	1.04967
3211.05977	1.04233
3209.13121	1.03715
3207.20265	1.03654
3205.27408	1.03827
3203.34552	1.03818
3201.41695	1.03531
3199.48839	1.03061
3197.55982	1.02501
3195.63126	1.01946
3193.70269	1.01464
3191.77413	1.00974
3189.84557	1.00452
3187.91700	1.00121
3185.98844	0.99897
3184.05987	0.99459
3182.13131	0.98990
3180.20274	0.98673
3178.27418	0.98178
3176.34562	0.97469
3174.41705	0.96880
3172.48849	0.96424
3170.55992	0.95969
3168.63136	0.95484
3166.70279	0.95000
3164.77423	0.94575
3162.84566	0.94226
3160.91710	0.93973
3158.98854	0.93825
3157.05997	0.93745
3155.13141	0.93607
3153.20284	0.93293
3151.27428	0.92886
3149.34571	0.92601
3147.41715	0.92478
3145.48858	0.92300
3143.56002	0.91950
3141.63146	0.91524
3139.70289	0.91140
3137.77433	0.90853
3135.84576	0.90683
3133.91720	0.90660
3131.98863	0.90639
3130.06007	0.90506
3128.13150	0.90445
3126.20294	0.90447
3124.27438	0.90288
3122.34581	0.90052
3120.41725	0.90038
3118.48868	0.90280
3116.56012	0.90491
3114.63155	0.90465
3112.70299	0.90269
3110.77442	0.90088
3108.84586	0.89983
3106.91730	0.89765
3104.98873	0.89460
3103.06017	0.89463
3101.13160	0.89754
3099.20304	0.89877
3097.27447	0.89750
3095.34591	0.89551
3093.41734	0.89312
3091.48878	0.89158
3089.56022	0.89195
3087.63165	0.89190
3085.70309	0.89052
3083.77452	0.89023
3081.84596	0.89010
3079.91739	0.88753
3077.98883	0.88439
3076.06026	0.88272
3074.13170	0.88060
3072.20314	0.87792
3070.27457	0.87734
3068.34601	0.87787
3066.41744	0.87655
3064.48888	0.87298
3062.56031	0.86820
3060.63175	0.86375
3058.70318	0.86007
3056.77462	0.85613
3054.84606	0.85153
3052.91749	0.84737
3050.98893	0.84489
3049.06036	0.84222
3047.13180	0.83633
3045.20323	0.82877
3043.27467	0.82255
3041.34610	0.81808
3039.41754	0.81582
3037.48898	0.81480
3035.56041	0.81160
3033.63185	0.80689
3031.70328	0.80357
3029.77472	0.80042
3027.84615	0.79627
3025.91759	0.79190
3023.98903	0.78763
3022.06046	0.78364
3020.13190	0.77992
3018.20333	0.77669
3016.27477	0.77458
3014.34620	0.77382
3012.41764	0.77337
3010.48907	0.77150
3008.56051	0.76884
3006.63195	0.76718
3004.70338	0.76624
3002.77482	0.76521
3000.84625	0.76474
2998.91769	0.76525
2996.98912	0.76637
2995.06056	0.76858
2993.13199	0.77229
2991.20343	0.77649
2989.27487	0.78093
2987.34630	0.78691
2985.41774	0.79504
2983.48917	0.80428
2981.56061	0.81320
2979.63204	0.82091
2977.70348	0.82787
2975.77491	0.83546
2973.84635	0.84375
2971.91779	0.85190
2969.98922	0.86022
2968.06066	0.86908
2966.13209	0.87696
2964.20353	0.88261
2962.27496	0.88618
2960.34640	0.88686
2958.41783	0.88479
2956.48927	0.88162
2954.56071	0.87629
2952.63214	0.86859
2950.70358	0.86141
2948.77501	0.85636
2946.84645	0.85472
2944.91788	0.85805
2942.98932	0.86540
2941.06075	0.87380
2939.13219	0.88125
2937.20363	0.88892
2935.27506	0.89834
2933.34650	0.90769
2931.41793	0.91451
2929.48937	0.91912
2927.56080	0.92325
2925.63224	0.92662
2923.70367	0.92739
2921.77511	0.92628
2919.84655	0.92499
2917.91798	0.92152
2915.98942	0.91151
2914.06085	0.89404
2912.13229	0.87424
2910.20372	0.85738
2908.27516	0.84333
2906.34659	0.83069
2904.41803	0.82046
2902.48947	0.81360
2900.56090	0.80900
2898.63234	0.80482
2896.70377	0.80081
2894.77521	0.79720
2892.84664	0.79331
2890.91808	0.78902
2888.98952	0.78474
2887.06095	0.78132
2885.13239	0.77997
2883.20382	0.78065
2881.27526	0.78268
2879.34669	0.78558
2877.41813	0.78810
2875.48956	0.78863
2873.56100	0.78647
2871.63244	0.78152
2869.70387	0.77419
2867.77531	0.76612
2865.84674	0.75911
2863.91818	0.75333
2861.98961	0.74854
2860.06105	0.74605
2858.13248	0.74715
2856.20392	0.75017
2854.27536	0.75305
2852.34679	0.75558
2850.41823	0.75485
2848.48966	0.74480
2846.56110	0.72497
2844.63253	0.70258
2842.70397	0.68406
2840.77540	0.67057
2838.84684	0.66061
2836.91828	0.65288
2834.98971	0.64658
2833.06115	0.64112
2831.13258	0.63627
2829.20402	0.63201
2827.27545	0.62839
2825.34689	0.62517
2823.41832	0.62196
2821.48976	0.61891
2819.56120	0.61616
2817.63263	0.61321
2815.70407	0.60970
2813.77550	0.60596
2811.84694	0.60231
2809.91837	0.59903
2807.98981	0.59621
2806.06124	0.59308
2804.13268	0.58947
2802.20412	0.58612
2800.27555	0.58283
2798.34699	0.57945
2796.41842	0.57651
2794.48986	0.57384
2792.56129	0.57086
2790.63273	0.56783
2788.70416	0.56511
2786.77560	0.56250
2784.84704	0.56009
2782.91847	0.55819
2780.98991	0.55637
2779.06134	0.55421
2777.13278	0.55172
2775.20421	0.54886
2773.27565	0.54575
2771.34708	0.54275
2769.41852	0.54022
2767.48996	0.53843
2765.56139	0.53689
2763.63283	0.53479
2761.70426	0.53213
2759.77570	0.52969
2757.84713	0.52785
2755.91857	0.52576
2753.99001	0.52301
2752.06144	0.52095
2750.13288	0.52015
2748.20431	0.51930
2746.27575	0.51796
2744.34718	0.51686
2742.41862	0.51605
2740.49005	0.51533
2738.56149	0.51449
2736.63293	0.51329
2734.70436	0.51204
2732.77580	0.51068
2730.84723	0.50886
2728.91867	0.50682
2726.99010	0.50487
2725.06154	0.50304
2723.13297	0.50106
2721.20441	0.49867
2719.27585	0.49612
2717.34728	0.49393
2715.41872	0.49199
2713.49015	0.48943
2711.56159	0.48608
2709.63302	0.48284
2707.70446	0.48036
2705.77589	0.47849
2703.84733	0.47691
2701.91877	0.47556
2699.99020	0.47455
2698.06164	0.47393
2696.13307	0.47326
2694.20451	0.47210
2692.27594	0.47070
2690.34738	0.46961
2688.41881	0.46900
2686.49025	0.46837
2684.56169	0.46705
2682.63312	0.46533
2680.70456	0.46375
2678.77599	0.46206
2676.84743	0.46002
2674.91886	0.45778
2672.99030	0.45557
2671.06173	0.45350
2669.13317	0.45155
2667.20461	0.45002
2665.27604	0.44882
2663.34748	0.44731
2661.41891	0.44577
2659.49035	0.44477
2657.56178	0.44381
2655.63322	0.44255
2653.70465	0.44161
2651.77609	0.44134
2649.84753	0.44107
2647.91896	0.44046
2645.99040	0.43992
2644.06183	0.43935
2642.13327	0.43828
2640.20470	0.43702
2638.27614	0.43585
2636.34757	0.43493
2634.41901	0.43419
2632.49045	0.43290
2630.56188	0.43092
2628.63332	0.42873
2626.70475	0.42668
2624.77619	0.42472
2622.84762	0.42257
2620.91906	0.42052
2618.99049	0.41861
2617.06193	0.41657
2615.13337	0.41473
2613.20480	0.41329
2611.27624	0.41194
2609.34767	0.41044
2607.41911	0.40872
2605.49054	0.40687
2603.56198	0.40546
2601.63342	0.40479
2599.70485	0.40410
2597.77629	0.40279
2595.84772	0.40148
2593.91916	0.40038
2591.99059	0.39884
2590.06203	0.39694
2588.13346	0.39531
2586.20490	0.39394
2584.27634	0.39249
2582.34777	0.39101
2580.41921	0.38972
2578.49064	0.38846
2576.56208	0.38708
2574.63351	0.38549
2572.70495	0.38393
2570.77638	0.38294
2568.84782	0.38247
2566.91926	0.38187
2564.99069	0.38084
2563.06213	0.37971
2561.13356	0.37866
2559.20500	0.37754
2557.27643	0.37633
2555.34787	0.37501
2553.41930	0.37367
2551.49074	0.37255
2549.56218	0.37140
2547.63361	0.36985
2545.70505	0.36804
2543.77648	0.36622
2541.84792	0.36449
2539.91935	0.36285
2537.99079	0.36121
2536.06222	0.35941
2534.13366	0.35736
2532.20510	0.35515
2530.27653	0.35311
2528.34797	0.35148
2526.41940	0.35000
2524.49084	0.34825
2522.56227	0.34654
2520.63371	0.34551
2518.70514	0.34468
2516.77658	0.34332
2514.84802	0.34169
2512.91945	0.34024
2510.99089	0.33895
2509.06232	0.33775
2507.13376	0.33672
2505.20519	0.33579
2503.27663	0.33474
2501.34806	0.33340
2499.41950	0.33188
2497.49094	0.33030
2495.56237	0.32864
2493.63381	0.32715
2491.70524	0.32617
2489.77668	0.32549
2487.84811	0.32458
2485.91955	0.32315
2483.99098	0.32146
2482.06242	0.31983
2480.13386	0.31833
2478.20529	0.31696
2476.27673	0.31559
2474.34816	0.31420
2472.41960	0.31289
2470.49103	0.31150
2468.56247	0.30981
2466.63391	0.30810
2464.70534	0.30668
2462.77678	0.30528
2460.84821	0.30362
2458.91965	0.30185
2456.99108	0.30025
2455.06252	0.29878
2453.13395	0.29722
2451.20539	0.29553
2449.27683	0.29384
2447.34826	0.29228
2445.41970	0.29098
2443.49113	0.28988
2441.56257	0.28870
2439.63400	0.28717
2437.70544	0.28553
2435.77687	0.28414
2433.84831	0.28283
2431.91975	0.28146
2429.99118	0.28019
2428.06262	0.27901
2426.13405	0.27789
2424.20549	0.27679
2422.27692	0.27550
2420.34836	0.27401
2418.41979	0.27259
2416.49123	0.27151
2414.56267	0.27069
2412.63410	0.26967
2410.70554	0.26837
2408.77697	0.26719
2406.84841	0.26625
2404.91984	0.26548
2402.99128	0.26485
2401.06271	0.26423
2399.13415	0.26349
2397.20559	0.26250
2395.27702	0.26153
2393.34846	0.26084
2391.41989	0.26025
2389.49133	0.25939
2387.56276	0.25815
2385.63420	0.25653
2383.70563	0.25475
2381.77707	0.25298
2379.84851	0.25126
2377.91994	0.24939
2375.99138	0.24715
2374.06281	0.24523
2372.13425	0.24483
2370.20568	0.24585
2368.27712	0.24679
2366.34855	0.24675
2364.41999	0.24644
2362.49143	0.24592
2360.56286	0.24488
2358.63430	0.24473
2356.70573	0.24551
2354.77717	0.24528
2352.84860	0.24317
2350.92004	0.23909
2348.99147	0.23409
2347.06291	0.23038
2345.13435	0.23056
2343.20578	0.23362
2341.27722	0.23469
2339.34865	0.23381
2337.42009	0.23286
2335.49152	0.23152
2333.56296	0.22967
2331.63440	0.22865
2329.70583	0.22890
2327.77727	0.22899
2325.84870	0.22809
2323.92014	0.22707
2321.99157	0.22671
2320.06301	0.22685
2318.13444	0.22684
2316.20588	0.22609
2314.27732	0.22508
2312.34875	0.22474
2310.42019	0.22515
2308.49162	0.22564
2306.56306	0.22557
2304.63449	0.22507
2302.70593	0.22463
2300.77736	0.22416
2298.84880	0.22326
2296.92024	0.22206
2294.99167	0.22091
2293.06311	0.21975
2291.13454	0.21839
2289.20598	0.21680
2287.27741	0.21508
2285.34885	0.21330
2283.42028	0.21144
2281.49172	0.20957
2279.56316	0.20801
2277.63459	0.20671
2275.70603	0.20548
2273.77746	0.20449
2271.84890	0.20382
2269.92033	0.20338
2267.99177	0.20316
2266.06320	0.20302
2264.13464	0.20271
2262.20608	0.20226
2260.27751	0.20192
2258.34895	0.20171
2256.42038	0.20151
2254.49182	0.20128
2252.56325	0.20096
2250.63469	0.20056
2248.70612	0.20011
2246.77756	0.19949
2244.84900	0.19880
2242.92043	0.19817
2240.99187	0.19762
2239.06330	0.19708
2237.13474	0.19646
2235.20617	0.19573
2233.27761	0.19504
2231.34904	0.19455
2229.42048	0.19416
2227.49192	0.19371
2225.56335	0.19335
2223.63479	0.19317
2221.70622	0.19304
2219.77766	0.19267
2217.84909	0.19203
2215.92053	0.19154
2213.99196	0.19140
2212.06340	0.19122
2210.13484	0.19074
2208.20627	0.19002
2206.27771	0.18913
2204.34914	0.18820
2202.42058	0.18733
2200.49201	0.18649
2198.56345	0.18557
2196.63488	0.18461
2194.70632	0.18372
2192.77776	0.18269
2190.84919	0.18140
2188.92063	0.18022
2186.99206	0.17941
2185.06350	0.17878
2183.13493	0.17823
2181.20637	0.17790
2179.27781	0.17775
2177.34924	0.17767
2175.42068	0.17765
2173.49211	0.17750
2171.56355	0.17712
2169.63498	0.17685
2167.70642	0.17693
2165.77785	0.17702
2163.84929	0.17678
2161.92073	0.17644
2159.99216	0.17626
2158.06360	0.17603
2156.13503	0.17565
2154.20647	0.17528
2152.27790	0.17483
2150.34934	0.17415
2148.42077	0.17344
2146.49221	0.17299
2144.56365	0.17271
2142.63508	0.17247
2140.70652	0.17228
2138.77795	0.17218
2136.84939	0.17221
2134.92082	0.17228
2132.99226	0.17220
2131.06369	0.17207
2129.13513	0.17203
2127.20657	0.17204
2125.27800	0.17195
2123.34944	0.17168
2121.42087	0.17129
2119.49231	0.17072
2117.56374	0.17007
2115.63518	0.16952
2113.70661	0.16899
2111.77805	0.16824
2109.84949	0.16730
2107.92092	0.16642
2105.99236	0.16564
2104.06379	0.16473
2102.13523	0.16363
2100.20666	0.16261
2098.27810	0.16181
2096.34953	0.16109
2094.42097	0.16046
2092.49241	0.15988
2090.56384	0.15924
2088.63528	0.15859
2086.70671	0.15799
2084.77815	0.15749
2082.84958	0.15708
2080.92102	0.15668
2078.99245	0.15614
2077.06389	0.15551
2075.13533	0.15504
2073.20676	0.15467
2071.27820	0.15419
2069.34963	0.15363
2067.42107	0.15311
2065.49250	0.15270
2063.56394	0.15230
2061.63537	0.15178
2059.70681	0.15125
2057.77825	0.15075
2055.84968	0.15017
2053.92112	0.14964
2051.99255	0.14925
2050.06399	0.14889
2048.13542	0.14844
2046.20686	0.14788
2044.27830	0.14737
2042.34973	0.14707
2040.42117	0.14686
2038.49260	0.14651
2036.56404	0.14599
2034.63547	0.14536
2032.70691	0.14461
2030.77834	0.14375
2028.84978	0.14287
2026.92122	0.14208
2024.99265	0.14132
2023.06409	0.14047
2021.13552	0.13946
2019.20696	0.13851
2017.27839	0.13792
2015.34983	0.13730
2013.42126	0.13635
2011.49270	0.13543
2009.56414	0.13477
2007.63557	0.13422
2005.70701	0.13359
2003.77844	0.13288
2001.84988	0.13223
1999.92131	0.13175
1997.99275	0.13137
1996.06418	0.13082
1994.13562	0.13037
1992.20706	0.13055
1990.27849	0.13085
1988.34993	0.13073
1986.42136	0.13054
1984.49280	0.13044
1982.56423	0.13045
1980.63567	0.13042
1978.70710	0.13030
1976.77854	0.13035
1974.84998	0.13051
1972.92141	0.13043
1970.99285	0.12996
1969.06428	0.12970
1967.13572	0.13021
1965.20715	0.13054
1963.27859	0.13021
1961.35002	0.12999
1959.42146	0.12985
1957.49290	0.12940
1955.56433	0.12892
1953.63577	0.12852
1951.70720	0.12802
1949.77864	0.12732
1947.85007	0.12644
1945.92151	0.12547
1943.99294	0.12490
1942.06438	0.12488
1940.13582	0.12440
1938.20725	0.12338
1936.27869	0.12260
1934.35012	0.12215
1932.42156	0.12195
1930.49299	0.12189
1928.56443	0.12168
1926.63586	0.12113
1924.70730	0.12094
1922.77874	0.12172
1920.85017	0.12232
1918.92161	0.12300
1916.99304	0.12442
1915.06448	0.12484
1913.13591	0.12434
1911.20735	0.12450
1909.27878	0.12568
1907.35022	0.12674
1905.42166	0.12710
1903.49309	0.12730
1901.56453	0.12757
1899.63596	0.12769
1897.70740	0.12781
1895.77883	0.12856
1893.85027	0.12927
1891.92171	0.12922
1889.99314	0.12989
1888.06458	0.13112
1886.13601	0.13133
1884.20745	0.13134
1882.27888	0.13169
1880.35032	0.13191
1878.42175	0.13192
1876.49319	0.13181
1874.56463	0.13131
1872.63606	0.13011
1870.70750	0.12931
1868.77893	0.13102
1866.85037	0.13307
1864.92180	0.13261
1862.99324	0.13144
1861.06467	0.13098
1859.13611	0.13118
1857.20755	0.13159
1855.27898	0.13199
1853.35042	0.13237
1851.42185	0.13268
1849.49329	0.13292
1847.56472	0.13302
1845.63616	0.13426
1843.70759	0.13773
1841.77903	0.13956
1839.85047	0.13916
1837.92190	0.13947
1835.99334	0.14085
1834.06477	0.14142
1832.13621	0.14167
1830.20764	0.14444
1828.27908	0.14797
1826.35051	0.14962
1824.42195	0.15148
1822.49339	0.15293
1820.56482	0.15351
1818.63626	0.15474
1816.70769	0.15639
1814.77913	0.15735
1812.85056	0.15819
1810.92200	0.16021
1808.99343	0.16239
1807.06487	0.16329
1805.13631	0.16338
1803.20774	0.16378
1801.27918	0.16574
1799.35061	0.16815
1797.42205	0.16883
1795.49348	0.16843
1793.56492	0.16959
1791.63635	0.17364
1789.70779	0.17575
1787.77923	0.17547
1785.85066	0.17599
1783.92210	0.17757
1781.99353	0.17950
1780.06497	0.18213
1778.13640	0.18391
1776.20784	0.18403
1774.27927	0.18503
1772.35071	0.19002
1770.42215	0.19510
1768.49358	0.19704
1766.56502	0.19783
1764.63645	0.19799
1762.70789	0.19992
1760.77932	0.20420
1758.85076	0.20758
1756.92220	0.21163
1754.99363	0.21567
1753.06507	0.21850
1751.13650	0.22453
1749.20794	0.23534
1747.27937	0.24433
1745.35081	0.25028
1743.42224	0.25544
1741.49368	0.26091
1739.56512	0.26679
1737.63655	0.26997
1735.70799	0.27196
1733.77942	0.27951
1731.85086	0.28625
1729.92229	0.28842
1727.99373	0.29060
1726.06516	0.29337
1724.13660	0.29775
1722.20804	0.30203
1720.27947	0.30500
1718.35091	0.31309
1716.42234	0.33248
1714.49378	0.34784
1712.56521	0.35741
1710.63665	0.36811
1708.70808	0.38195
1706.77952	0.40427
1704.85096	0.43565
1702.92239	0.46390
1700.99383	0.50356
1699.06526	0.56915
1697.13670	0.63182
1695.20813	0.69309
1693.27957	0.73670
1691.35100	0.76876
1689.42244	0.80719
1687.49388	0.84080
1685.56531	0.87081
1683.63675	0.91765
1681.70818	0.94917
1679.77962	0.96228
1677.85105	0.97203
1675.92249	0.98202
1673.99392	0.99119
1672.06536	0.99740
1670.13680	1.00605
1668.20823	1.01639
1666.27967	1.01808
1664.35110	1.01794
1662.42254	1.02262
1660.49397	1.02663
1658.56541	1.02577
1656.63684	1.02199
1654.70828	1.02025
1652.77972	1.02540
1650.85115	1.02596
1648.92259	1.02291
1646.99402	1.01954
1645.06546	1.01364
1643.13689	1.00637
1641.20833	1.00087
1639.27976	0.99654
1637.35120	0.99256
1635.42264	0.98954
1633.49407	0.98476
1631.56551	0.97740
1629.63694	0.96854
1627.70838	0.96027
1625.77981	0.95288
1623.85125	0.94416
1621.92269	0.93250
1619.99412	0.91997
1618.06556	0.90560
1616.13699	0.88689
1614.20843	0.87000
1612.27986	0.85463
1610.35130	0.83837
1608.42273	0.82274
1606.49417	0.80998
1604.56561	0.80041
1602.63704	0.79348
1600.70848	0.78876
1598.77991	0.78550
1596.85135	0.78382
1594.92278	0.78423
1592.99422	0.78607
1591.06565	0.78886
1589.13709	0.79328
1587.20853	0.79957
1585.27996	0.80696
1583.35140	0.81533
1581.42283	0.82381
1579.49427	0.83099
1577.56570	0.84121
1575.63714	0.85876
1573.70857	0.86949
1571.78001	0.87464
1569.85145	0.88539
1567.92288	0.89840
1565.99432	0.90689
1564.06575	0.91412
1562.13719	0.91839
1560.20862	0.92482
1558.28006	0.94691
1556.35149	0.95522
1554.42293	0.95406
1552.49437	0.95287
1550.56580	0.95182
1548.63724	0.94994
1546.70867	0.94600
1544.78011	0.93969
1542.85154	0.93171
1540.92298	0.92580
1538.99441	0.92214
1537.06585	0.91667
1535.13729	0.90955
1533.20872	0.90131
1531.28016	0.89332
1529.35159	0.88704
1527.42303	0.88298
1525.49446	0.87963
1523.56590	0.87596
1521.63733	0.87423
1519.70877	0.87325
1517.78021	0.86880
1515.85164	0.86066
1513.92308	0.84984
1511.99451	0.83665
1510.06595	0.82179
1508.13738	0.80245
1506.20882	0.77626
1504.28025	0.75845
1502.35169	0.74335
1500.42313	0.72678
1498.49456	0.70856
1496.56600	0.68837
1494.63743	0.67026
1492.70887	0.65609
1490.78030	0.64230
1488.85174	0.62852
1486.92317	0.61962
1484.99461	0.61420
1483.06605	0.61148
1481.13748	0.61217
1479.20892	0.61525
1477.28035	0.62061
1475.35179	0.63038
1473.42322	0.64868
1471.49466	0.66887
1469.56610	0.67727
1467.63753	0.68057
1465.70897	0.68639
1463.78040	0.69388
1461.85184	0.69675
1459.92327	0.69706
1457.99471	0.70335
1456.06614	0.71483
1454.13758	0.71615
1452.20902	0.71336
1450.28045	0.71060
1448.35189	0.70896
1446.42332	0.70790
1444.49476	0.70587
1442.56619	0.70306
1440.63763	0.69986
1438.70906	0.69669
1436.78050	0.69431
1434.85194	0.69065
1432.92337	0.68558
1430.99481	0.68182
1429.06624	0.67964
1427.13768	0.67771
1425.20911	0.67726
1423.28055	0.67901
1421.35198	0.68106
1419.42342	0.68450
1417.49486	0.68869
1415.56629	0.68923
1413.63773	0.68818
1411.70916	0.68777
1409.78060	0.68812
1407.85203	0.68881
1405.92347	0.69103
1403.99490	0.69449
1402.06634	0.69622
1400.13778	0.69707
1398.20921	0.69857
1396.28065	0.70026
1394.35208	0.70211
1392.42352	0.70320
1390.49495	0.70400
1388.56639	0.70744
1386.63782	0.71448
1384.70926	0.72077
1382.78070	0.72472
1380.85213	0.72684
1378.92357	0.72584
1376.99500	0.72112
1375.06644	0.71312
1373.13787	0.70220
1371.20931	0.68993
1369.28074	0.67643
1367.35218	0.66207
1365.42362	0.64872
1363.49505	0.63619
1361.56649	0.62546
1359.63792	0.61828
1357.70936	0.61387
1355.78079	0.61151
1353.85223	0.61041
1351.92366	0.60997
1349.99510	0.61055
1348.06654	0.61217
1346.13797	0.61414
1344.20941	0.61589
1342.28084	0.61755
1340.35228	0.62052
1338.42371	0.62492
1336.49515	0.62898
1334.56659	0.63331
1332.63802	0.63896
1330.70946	0.64534
1328.78089	0.65094
1326.85233	0.65461
1324.92376	0.65630
1322.99520	0.65685
1321.06663	0.65761
1319.13807	0.65944
1317.20951	0.66143
1315.28094	0.66230
1313.35238	0.66264
1311.42381	0.66324
1309.49525	0.66393
1307.56668	0.66411
1305.63812	0.66343
1303.70955	0.66232
1301.78099	0.66106
1299.85243	0.65923
1297.92386	0.65632
1295.99530	0.65250
1294.06673	0.64875
1292.13817	0.64588
1290.20960	0.64406
1288.28104	0.64297
1286.35247	0.64213
1284.42391	0.64127
1282.49535	0.64040
1280.56678	0.63954
1278.63822	0.63889
1276.70965	0.63883
1274.78109	0.63949
1272.85252	0.64123
1270.92396	0.64431
1268.99539	0.64819
1267.06683	0.65251
1265.13827	0.65700
1263.20970	0.66085
1261.28114	0.66346
1259.35257	0.66507
1257.42401	0.66650
1255.49544	0.66858
1253.56688	0.67126
1251.63831	0.67430
1249.70975	0.67762
1247.78119	0.68035
1245.85262	0.68193
1243.92406	0.68272
1241.99549	0.68281
1240.06693	0.68207
1238.13836	0.68035
1236.20980	0.67719
1234.28123	0.67222
1232.35267	0.66572
1230.42411	0.65849
1228.49554	0.65091
1226.56698	0.64256
1224.63841	0.63327
1222.70985	0.62396
1220.78128	0.61539
1218.85272	0.60771
1216.92415	0.60112
1214.99559	0.59599
1213.06703	0.59275
1211.13846	0.59166
1209.20990	0.59195
1207.28133	0.59158
1205.35277	0.58911
1203.42420	0.58477
1201.49564	0.57891
1199.56708	0.57183
1197.63851	0.56457
1195.70995	0.55802
1193.78138	0.55234
1191.85282	0.54787
1189.92425	0.54475
1187.99569	0.54280
1186.06712	0.54238
1184.13856	0.54372
1182.21000	0.54674
1180.28143	0.55200
1178.35287	0.55979
1176.42430	0.56948
1174.49574	0.58007
1172.56717	0.59054
1170.63861	0.60070
1168.71004	0.61122
1166.78148	0.62259
1164.85292	0.63454
1162.92435	0.64586
1160.99579	0.65460
1159.06722	0.65898
1157.13866	0.65894
1155.21009	0.65565
1153.28153	0.64976
1151.35296	0.64165
1149.42440	0.63246
1147.49584	0.62318
1145.56727	0.61450
1143.63871	0.60807
1141.71014	0.60472
1139.78158	0.60363
1137.85301	0.60458
1135.92445	0.60807
1133.99588	0.61450
1132.06732	0.62364
1130.13876	0.63420
1128.21019	0.64528
1126.28163	0.65658
1124.35306	0.66776
1122.42450	0.67853
1120.49593	0.68835
1118.56737	0.69627
1116.63880	0.70124
1114.71024	0.70366
1112.78168	0.70540
1110.85311	0.70677
1108.92455	0.70680
1106.99598	0.70635
1105.06742	0.70715
1103.13885	0.70870
1101.21029	0.70978
1099.28172	0.71124
1097.35316	0.71470
1095.42460	0.72070
1093.49603	0.72884
1091.56747	0.73746
1089.63890	0.74528
1087.71034	0.75332
1085.78177	0.76221
1083.85321	0.77032
1081.92464	0.77608
1079.99608	0.77882
1078.06752	0.77814
1076.13895	0.77398
1074.21039	0.76682
1072.28182	0.75794
1070.35326	0.74906
1068.42469	0.74134
1066.49613	0.73471
1064.56756	0.72844
1062.63900	0.72314
1060.71044	0.71972
1058.78187	0.71694
1056.85331	0.71400
1054.92474	0.71203
1052.99618	0.71083
1051.06761	0.70867
1049.13905	0.70586
1047.21049	0.70497
1045.28192	0.70711
1043.35336	0.71076
1041.42479	0.71372
1039.49623	0.71523
1037.56766	0.71585
1035.63910	0.71538
1033.71053	0.71325
1031.78197	0.70961
1029.85341	0.70457
1027.92484	0.69773
1025.99628	0.68960
1024.06771	0.68191
1022.13915	0.67545
1020.21058	0.67012
1018.28202	0.66567
1016.35345	0.66129
1014.42489	0.65629
1012.49633	0.64990
1010.56776	0.64127
1008.63920	0.63095
1006.71063	0.62014
1004.78207	0.60951
1002.85350	0.59963
1000.92494	0.59084
998.99637	0.58289
997.06781	0.57507
995.13925	0.56639
993.21068	0.55609
991.28212	0.54374
989.35355	0.52932
987.42499	0.51368
985.49642	0.49773
983.56786	0.48243
981.63929	0.46907
979.71073	0.45833
977.78217	0.44967
975.85360	0.44236
973.92504	0.43581
971.99647	0.42969
970.06791	0.42458
968.13934	0.42159
966.21078	0.42125
964.28221	0.42364
962.35365	0.42910
960.42509	0.43815
958.49652	0.45018
956.56796	0.46207
954.63939	0.46979
952.71083	0.47136
950.78226	0.46753
948.85370	0.46044
946.92513	0.45217
944.99657	0.44437
943.06801	0.43795
941.13944	0.43265
939.21088	0.42835
937.28231	0.42561
935.35375	0.42464
933.42518	0.42532
931.49662	0.42776
929.56805	0.43216
927.63949	0.43874
925.71093	0.44730
923.78236	0.45720
921.85380	0.46741
919.92523	0.47639
917.99667	0.48332
916.06810	0.48875
914.13954	0.49272
912.21098	0.49453
910.28241	0.49438
908.35385	0.49270
906.42528	0.48954
904.49672	0.48495
902.56815	0.47890
900.63959	0.47164
898.71102	0.46377
896.78246	0.45543
894.85390	0.44665
892.92533	0.43798
890.99677	0.43025
889.06820	0.42460
887.13964	0.42176
885.21107	0.42161
883.28251	0.42414
881.35394	0.42961
879.42538	0.43770
877.49682	0.44746
875.56825	0.45799
873.63969	0.46887
871.71112	0.47977
869.78256	0.49000
867.85399	0.49876
865.92543	0.50563
863.99686	0.51044
862.06830	0.51306
860.13974	0.51349
858.21117	0.51215
856.28261	0.50970
854.35404	0.50662
852.42548	0.50342
850.49691	0.50058
848.56835	0.49814
846.63978	0.49641
844.71122	0.49656
842.78266	0.49927
840.85409	0.50428
838.92553	0.51109
836.99696	0.51946
835.06840	0.52942
833.13983	0.54015
831.21127	0.55028
829.28270	0.55930
827.35414	0.56722
825.42558	0.57359
823.49701	0.57749
821.56845	0.57828
819.63988	0.57645
817.71132	0.57306
815.78275	0.56867
813.85419	0.56336
811.92562	0.55720
809.99706	0.55010
808.06850	0.54289
806.13993	0.53687
804.21137	0.53186
802.28280	0.52806
800.35424	0.52683
798.42567	0.52863
796.49711	0.53251
794.56854	0.53799
792.63998	0.54597
790.71142	0.55698
788.78285	0.57012
786.85429	0.58447
784.92572	0.59955
782.99716	0.61432
781.06859	0.62757
779.14003	0.63868
777.21147	0.64725
775.28290	0.65330
773.35434	0.65625
771.42577	0.65515
769.49721	0.65071
767.56864	0.64473
765.64008	0.63806
763.71151	0.63052
761.78295	0.62275
759.85439	0.61648
757.92582	0.61266
755.99726	0.61088
754.06869	0.61076
752.14013	0.61249
750.21156	0.61624
748.28300	0.62216
746.35443	0.62964
744.42587	0.63811
742.49731	0.64777
740.56874	0.65719
738.64018	0.66435
736.71161	0.67003
734.78305	0.67587
732.85448	0.68152
730.92592	0.68578
728.99735	0.68814
727.06879	0.68789
725.14023	0.68513
723.21166	0.68213
721.28310	0.67973
719.35453	0.67669
717.42597	0.67313
715.49740	0.67039
713.56884	0.66971
711.64027	0.67113
709.71171	0.67388
707.78315	0.67837
705.85458	0.68429
703.92602	0.68965
701.99745	0.69496
700.06889	0.70190
698.14032	0.70838
696.21176	0.71226
694.28319	0.71527
692.35463	0.71891
690.42607	0.72236
688.49750	0.72389
686.56894	0.72202
684.64037	0.71763
682.71181	0.71278
680.78324	0.70716
678.85468	0.69977
676.92611	0.69214
674.99755	0.68482
673.06899	0.67752
671.14042	0.67285
669.21186	0.67306
667.28329	0.67469
665.35473	0.67434
663.42616	0.67584
661.49760	0.68033
659.56903	0.68587
657.64047	0.69128
655.71191	0.69667
653.78334	0.70235
651.85478	0.70892
649.92621	0.71528
647.99765	0.71968
646.06908	0.72191
644.14052	0.72297
642.21195	0.72415
640.28339	0.72533
638.35483	0.72594
636.42626	0.72614
634.49770	0.72467
632.56913	0.71973
630.64057	0.71268
628.71200	0.70695
626.78344	0.70374
624.85488	0.70321
622.92631	0.70547
620.99775	0.70805
619.06918	0.70787
617.14062	0.70576
615.21205	0.70574
613.28349	0.70893
611.35492	0.71335
609.42636	0.71783
607.49780	0.72141
605.56923	0.72319
603.64067	0.72437
601.71210	0.72658
599.78354	0.72814
