3997.91406	0.48508
3995.98550	0.48612
3994.05693	0.48615
3992.12837	0.48577
3990.19980	0.48598
3988.27124	0.48487
3986.34268	0.48274
3984.41411	0.48241
3982.48555	0.48369
3980.55698	0.48453
3978.62842	0.48429
3976.69985	0.48287
3974.77129	0.48073
3972.84272	0.47934
3970.91416	0.47901
3968.98560	0.47892
3967.05703	0.47849
3965.12847	0.47779
3963.19990	0.47776
3961.27134	0.47819
3959.34277	0.47780
3957.41421	0.47701
3955.48564	0.47691
3953.55708	0.47761
3951.62852	0.47864
3949.69995	0.48050
3947.77139	0.48254
3945.84282	0.48202
3943.91426	0.48104
3941.98569	0.48242
3940.05713	0.48350
3938.12856	0.48314
3936.20000	0.48192
3934.27144	0.48039
3932.34287	0.48013
3930.41431	0.48046
3928.48574	0.47962
3926.55718	0.47924
3924.62861	0.48035
3922.70005	0.48001
3920.77148	0.47821
3918.84292	0.47829
3916.91436	0.48021
3914.98579	0.48066
3913.05723	0.47876
3911.12866	0.47567
3909.20010	0.47143
3907.27153	0.46769
3905.34297	0.46941
3903.41440	0.47556
3901.48584	0.47817
3899.55728	0.47863
3897.62871	0.47678
3895.70015	0.47207
3893.77158	0.47039
3891.84302	0.47563
3889.91445	0.47620
3887.98589	0.46945
3886.05733	0.46789
3884.12876	0.47182
3882.20020	0.47260
3880.27163	0.47354
3878.34307	0.47150
3876.41450	0.46578
3874.48594	0.46294
3872.55737	0.46541
3870.62881	0.47245
3868.70025	0.47519
3866.77168	0.46982
3864.84312	0.46771
3862.91455	0.46993
3860.98599	0.46744
3859.05742	0.46131
3857.12886	0.45439
3855.20029	0.45248
3853.27173	0.46781
3851.34317	0.47797
3849.41460	0.47302
3847.48604	0.46497
3845.55747	0.45904
3843.62891	0.45744
3841.70034	0.45858
3839.77178	0.46184
3837.84321	0.46695
3835.91465	0.46742
3833.98609	0.46487
3832.05752	0.46372
3830.12896	0.46267
3828.20039	0.46110
3826.27183	0.45963
3824.34326	0.45666
3822.41470	0.45658
3820.48613	0.46184
3818.55757	0.46159
3816.62901	0.46235
3814.70044	0.46538
3812.77188	0.46219
3810.84331	0.45615
3808.91475	0.45409
3806.98618	0.45915
3805.05762	0.46060
3803.12905	0.45831
3801.20049	0.46228
3799.27193	0.46302
3797.34336	0.46066
3795.41480	0.46183
3793.48623	0.46243
3791.55767	0.46133
3789.62910	0.45989
3787.70054	0.45831
3785.77197	0.45896
3783.84341	0.46113
3781.91485	0.46105
3779.98628	0.46120
3778.05772	0.46211
3776.12915	0.45994
3774.20059	0.45590
3772.27202	0.45340
3770.34346	0.45540
3768.41489	0.45844
3766.48633	0.45894
3764.55777	0.45799
3762.62920	0.45456
3760.70064	0.45269
3758.77207	0.45590
3756.84351	0.45583
3754.91494	0.44977
3752.98638	0.44530
3751.05781	0.45321
3749.12925	0.46103
3747.20069	0.45661
3745.27212	0.45433
3743.34356	0.45643
3741.41499	0.45249
3739.48643	0.44567
3737.55786	0.44368
3735.62930	0.45135
3733.70074	0.45859
3731.77217	0.45775
3729.84361	0.45375
3727.91504	0.45126
3725.98648	0.45326
3724.05791	0.45555
3722.12935	0.45506
3720.20078	0.45537
3718.27222	0.45527
3716.34366	0.45179
3714.41509	0.44743
3712.48653	0.45031
3710.55796	0.46093
3708.62940	0.46295
3706.70083	0.45817
3704.77227	0.45336
3702.84370	0.45290
3700.91514	0.45638
3698.98658	0.45766
3697.05801	0.45671
3695.12945	0.45464
3693.20088	0.45172
3691.27232	0.45373
3689.34375	0.46670
3687.41519	0.47410
3685.48662	0.47136
3683.55806	0.46760
3681.62950	0.46592
3679.70093	0.46548
3677.77237	0.46664
3675.84380	0.47700
3673.91524	0.48464
3671.98667	0.48180
3670.05811	0.48625
3668.12954	0.49358
3666.20098	0.49292
3664.27242	0.49184
3662.34385	0.49353
3660.41529	0.49549
3658.48672	0.49830
3656.55816	0.50650
3654.62959	0.51276
3652.70103	0.51167
3650.77246	0.51496
3648.84390	0.53449
3646.91534	0.54680
3644.98677	0.54744
3643.05821	0.54697
3641.12964	0.54806
3639.20108	0.55093
3637.27251	0.55531
3635.34395	0.56007
3633.41538	0.56258
3631.48682	0.56274
3629.55826	0.57358
3627.62969	0.59338
3625.70113	0.59707
3623.77256	0.59465
3621.84400	0.59529
3619.91543	0.60419
3617.98687	0.61683
3616.05830	0.62139
3614.12974	0.62488
3612.20118	0.63217
3610.27261	0.63924
3608.34405	0.64920
3606.41548	0.65964
3604.48692	0.66310
3602.55835	0.66420
3600.62979	0.66853
3598.70123	0.67400
3596.77266	0.67960
3594.84410	0.68983
3592.91553	0.70050
3590.98697	0.70455
3589.05840	0.71103
3587.12984	0.73044
3585.20127	0.74452
3583.27271	0.74674
3581.34415	0.74939
3579.41558	0.75642
3577.48702	0.76444
3575.55845	0.77222
3573.62989	0.77838
3571.70132	0.78051
3569.77276	0.78292
3567.84419	0.79666
3565.91563	0.81738
3563.98707	0.82515
3562.05850	0.82722
3560.12994	0.83098
3558.20137	0.83594
3556.27281	0.84199
3554.34424	0.85018
3552.41568	0.86126
3550.48711	0.87257
3548.55855	0.88191
3546.62999	0.88957
3544.70142	0.89693
3542.77286	0.90553
3540.84429	0.91250
3538.91573	0.91671
3536.98716	0.92194
3535.05860	0.92972
3533.13003	0.93763
3531.20147	0.94439
3529.27291	0.95101
3527.34434	0.95963
3525.41578	0.97060
3523.48721	0.98273
3521.55865	0.99416
3519.63008	1.00338
3517.70152	1.00997
3515.77295	1.01486
3513.84439	1.02156
3511.91583	1.03189
3509.98726	1.04457
3508.05870	1.05555
3506.13013	1.06290
3504.20157	1.07338
3502.27300	1.08898
3500.34444	1.10018
3498.41587	1.10621
3496.48731	1.11313
3494.55875	1.12149
3492.63018	1.12981
3490.70162	1.14026
3488.77305	1.15436
3486.84449	1.16814
3484.91592	1.17540
3482.98736	1.17956
3481.05879	1.18804
3479.13023	1.19794
3477.20167	1.20400
3475.27310	1.20653
3473.34454	1.20746
3471.41597	1.20750
3469.48741	1.21186
3467.55884	1.22382
3465.63028	1.23410
3463.70171	1.23856
3461.77315	1.24404
3459.84459	1.25235
3457.91602	1.25742
3455.98746	1.25594
3454.05889	1.25323
3452.13033	1.25487
3450.20176	1.26083
3448.27320	1.26858
3446.34464	1.27587
3444.41607	1.28231
3442.48751	1.29040
3440.55894	1.29794
3438.63038	1.29987
3436.70181	1.29912
3434.77325	1.29872
3432.84468	1.29928
3430.91612	1.30406
3428.98756	1.31271
3427.05899	1.31846
3425.13043	1.31825
3423.20186	1.31873
3421.27330	1.32249
3419.34473	1.32367
3417.41617	1.32227
3415.48760	1.32229
3413.55904	1.32243
3411.63048	1.32101
3409.70191	1.31858
3407.77335	1.31607
3405.84478	1.31697
3403.91622	1.32134
3401.98765	1.32679
3400.05909	1.33426
3398.13052	1.34180
3396.20196	1.34649
3394.27340	1.35094
3392.34483	1.35528
3390.41627	1.35117
3388.48770	1.33981
3386.55914	1.33691
3384.63057	1.34518
3382.70201	1.35111
3380.77344	1.35274
3378.84488	1.35734
3376.91632	1.36413
3374.98775	1.37085
3373.05919	1.37727
3371.13062	1.37960
3369.20206	1.37865
3367.27349	1.38005
3365.34493	1.38089
3363.41636	1.37874
3361.48780	1.38289
3359.55924	1.39705
3357.63067	1.41126
3355.70211	1.41559
3353.77354	1.41100
3351.84498	1.40797
3349.91641	1.41166
3347.98785	1.41395
3346.05928	1.41214
3344.13072	1.41629
3342.20216	1.42754
3340.27359	1.43751
3338.34503	1.44402
3336.41646	1.45003
3334.48790	1.45741
3332.55933	1.46182
3330.63077	1.45729
3328.70220	1.45006
3326.77364	1.45339
3324.84508	1.46770
3322.91651	1.48196
3320.98795	1.49103
3319.05938	1.49541
3317.13082	1.50036
3315.20225	1.51254
3313.27369	1.52197
3311.34513	1.52153
3309.41656	1.52540
3307.48800	1.53652
3305.55943	1.54359
3303.63087	1.54151
3301.70230	1.53278
3299.77374	1.52786
3297.84517	1.52941
3295.91661	1.52282
3293.98805	1.50671
3292.05948	1.50338
3290.13092	1.51917
3288.20235	1.53314
3286.27379	1.53494
3284.34522	1.53340
3282.41666	1.53254
3280.48809	1.53501
3278.55953	1.54401
3276.63097	1.54754
3274.70240	1.53457
3272.77384	1.51971
3270.84527	1.51570
3268.91671	1.51528
3266.98814	1.50988
3265.05958	1.50215
3263.13101	1.49581
3261.20245	1.49136
3259.27389	1.49196
3257.34532	1.49062
3255.41676	1.47662
3253.48819	1.46144
3251.55963	1.45705
3249.63106	1.45259
3247.70250	1.44147
3245.77393	1.43329
3243.84537	1.42589
3241.91681	1.41478
3239.98824	1.40799
3238.05968	1.40299
3236.13111	1.39129
3234.20255	1.37682
3232.27398	1.36750
3230.34542	1.36469
3228.41685	1.36246
3226.48829	1.35346
3224.55973	1.34040
3222.63116	1.33599
3220.70260	1.34200
3218.77403	1.34565
3216.84547	1.34231
3214.91690	1.33670
3212.98834	1.32772
3211.05977	1.31358
3209.13121	1.30170
3207.20265	1.29869
3205.27408	1.29998
3203.34552	1.29799
3201.41695	1.28870
3199.48839	1.27558
3197.55982	1.26836
3195.63126	1.26717
3193.70269	1.26269
3191.77413	1.25266
3189.84557	1.24248
3187.91700	1.23568
3185.98844	1.23086
3184.05987	1.22640
3182.13131	1.22207
3180.20274	1.21664
3178.27418	1.20954
3176.34562	1.20161
3174.41705	1.19519
3172.48849	1.19168
3170.55992	1.18750
3168.63136	1.18054
3166.70279	1.17380
3164.77423	1.16841
3162.84566	1.16297
3160.91710	1.15782
3158.98854	1.15432
3157.05997	1.15145
3155.13141	1.14693
3153.20284	1.14109
3151.27428	1.13659
3149.34571	1.13458
3147.41715	1.13256
3145.48858	1.12823
3143.56002	1.12302
3141.63146	1.11901
3139.70289	1.11553
3137.77433	1.11109
3135.84576	1.10721
3133.91720	1.10650
3131.98863	1.10787
3130.06007	1.10866
3128.13150	1.10821
3126.20294	1.10683
3124.27438	1.10514
3122.34581	1.10304
3120.41725	1.10122
3118.48868	1.10171
3116.56012	1.10287
3114.63155	1.10178
3112.70299	1.10025
3110.77442	1.10045
3108.84586	1.10118
3106.91730	1.10103
3104.98873	1.10012
3103.06017	1.09881
3101.13160	1.09756
3099.20304	1.09704
3097.27447	1.09691
3095.34591	1.09597
3093.41734	1.09386
3091.48878	1.09010
3089.56022	1.08507
3087.63165	1.08085
3085.70309	1.07742
3083.77452	1.07496
3081.84596	1.07419
3079.91739	1.07335
3077.98883	1.07241
3076.06026	1.07156
3074.13170	1.06879
3072.20314	1.06354
3070.27457	1.05816
3068.34601	1.05479
3066.41744	1.05149
3064.48888	1.04746
3062.56031	1.04545
3060.63175	1.04429
3058.70318	1.04020
3056.77462	1.03320
3054.84606	1.02679
3052.91749	1.02334
3050.98893	1.02090
3049.06036	1.01608
3047.13180	1.00923
3045.20323	1.00304
3043.27467	0.99781
3041.34610	0.99276
3039.41754	0.98834
3037.48898	0.98439
3035.56041	0.97953
3033.63185	0.97318
3031.70328	0.96722
3029.77472	0.96362
3027.84615	0.96075
3025.91759	0.95584
3023.98903	0.95008
3022.06046	0.94668
3020.13190	0.94467
3018.20333	0.94060
3016.27477	0.93544
3014.34620	0.93183
3012.41764	0.92816
3010.48907	0.92368
3008.56051	0.92079
3006.63195	0.91957
3004.70338	0.91848
3002.77482	0.91745
3000.84625	0.91684
2998.91769	0.91690
2996.98912	0.91785
2995.06056	0.91919
2993.13199	0.92111
2991.20343	0.92493
2989.27487	0.93063
2987.34630	0.93736
2985.41774	0.94516
2983.48917	0.95416
2981.56061	0.96385
2979.63204	0.97367
2977.70348	0.98333
2975.77491	0.99300
2973.84635	1.00383
2971.91779	1.01636
2969.98922	1.02866
2968.06066	1.03943
2966.13209	1.04987
2964.20353	1.05973
2962.27496	1.06577
2960.34640	1.06591
2958.41783	1.06133
2956.48927	1.05369
2954.56071	1.04450
2952.63214	1.03697
2950.70358	1.03331
2948.77501	1.03162
2946.84645	1.03079
2944.91788	1.03378
2942.98932	1.04185
2941.06075	1.05303
2939.13219	1.06580
2937.20363	1.07825
2935.27506	1.08910
2933.34650	1.09936
2931.41793	1.10867
2929.48937	1.11669
2927.56080	1.12402
2925.63224	1.12805
2923.70367	1.12751
2921.77511	1.12604
2919.84655	1.12450
2917.91798	1.11756
2915.98942	1.10074
2914.06085	1.07662
2912.13229	1.05133
2910.20372	1.02853
2908.27516	1.00932
2906.34659	0.99411
2904.41803	0.98249
2902.48947	0.97283
2900.56090	0.96452
2898.63234	0.95856
2896.70377	0.95428
2894.77521	0.94960
2892.84664	0.94385
2890.91808	0.93804
2888.98952	0.93412
2887.06095	0.93258
2885.13239	0.93224
2883.20382	0.93299
2881.27526	0.93501
2879.34669	0.93756
2877.41813	0.93935
2875.48956	0.93899
2873.56100	0.93541
2871.63244	0.92792
2869.70387	0.91803
2867.77531	0.90845
2865.84674	0.90041
2863.91818	0.89467
2861.98961	0.89179
2860.06105	0.89178
2858.13248	0.89464
2856.20392	0.89967
2854.27536	0.90545
2852.34679	0.90989
2850.41823	0.90854
2848.48966	0.89541
2846.56110	0.87012
2844.63253	0.84152
2842.70397	0.81813
2840.77540	0.80107
2838.84684	0.78823
2836.91828	0.77811
2834.98971	0.77009
2833.06115	0.76369
2831.13258	0.75759
2829.20402	0.75156
2827.27545	0.74677
2825.34689	0.74314
2823.41832	0.73951
2821.48976	0.73553
2819.56120	0.73160
2817.63263	0.72772
2815.70407	0.72350
2813.77550	0.71908
2811.84694	0.71499
2809.91837	0.71127
2807.98981	0.70753
2806.06124	0.70341
2804.13268	0.69908
2802.20412	0.69516
2800.27555	0.69168
2798.34699	0.68828
2796.41842	0.68456
2794.48986	0.68064
2792.56129	0.67731
2790.63273	0.67465
2788.70416	0.67227
2786.77560	0.66994
2784.84704	0.66765
2782.91847	0.66548
2780.98991	0.66324
2779.06134	0.66088
2777.13278	0.65843
2775.20421	0.65599
2773.27565	0.65393
2771.34708	0.65205
2769.41852	0.64964
2767.48996	0.64623
2765.56139	0.64224
2763.63283	0.63898
2761.70426	0.63644
2759.77570	0.63390
2757.84713	0.63150
2755.91857	0.62916
2753.99001	0.62667
2752.06144	0.62422
2750.13288	0.62158
2748.20431	0.61898
2746.27575	0.61711
2744.34718	0.61551
2742.41862	0.61340
2740.49005	0.61107
2738.56149	0.60899
2736.63293	0.60718
2734.70436	0.60564
2732.77580	0.60407
2730.84723	0.60203
2728.91867	0.59988
2726.99010	0.59819
2725.06154	0.59662
2723.13297	0.59472
2721.20441	0.59253
2719.27585	0.59032
2717.34728	0.58878
2715.41872	0.58796
2713.49015	0.58702
2711.56159	0.58550
2709.63302	0.58392
2707.70446	0.58272
2705.77589	0.58128
2703.84733	0.57966
2701.91877	0.57839
2699.99020	0.57705
2698.06164	0.57562
2696.13307	0.57481
2694.20451	0.57430
2692.27594	0.57330
2690.34738	0.57207
2688.41881	0.57104
2686.49025	0.57008
2684.56169	0.56888
2682.63312	0.56718
2680.70456	0.56544
2678.77599	0.56452
2676.84743	0.56392
2674.91886	0.56270
2672.99030	0.56093
2671.06173	0.55864
2669.13317	0.55616
2667.20461	0.55444
2665.27604	0.55337
2663.34748	0.55222
2661.41891	0.55078
2659.49035	0.54913
2657.56178	0.54747
2655.63322	0.54597
2653.70465	0.54476
2651.77609	0.54352
2649.84753	0.54190
2647.91896	0.54061
2645.99040	0.54011
2644.06183	0.53950
2642.13327	0.53808
2640.20470	0.53640
2638.27614	0.53518
2636.34757	0.53443
2634.41901	0.53372
2632.49045	0.53293
2630.56188	0.53221
2628.63332	0.53140
2626.70475	0.53068
2624.77619	0.53001
2622.84762	0.52884
2620.91906	0.52748
2618.99049	0.52655
2617.06193	0.52563
2615.13337	0.52431
2613.20480	0.52292
2611.27624	0.52163
2609.34767	0.52023
2607.41911	0.51883
2605.49054	0.51772
2603.56198	0.51684
2601.63342	0.51629
2599.70485	0.51619
2597.77629	0.51602
2595.84772	0.51515
2593.91916	0.51385
2591.99059	0.51305
2590.06203	0.51270
2588.13346	0.51195
2586.20490	0.51090
2584.27634	0.50999
2582.34777	0.50916
2580.41921	0.50840
2578.49064	0.50787
2576.56208	0.50731
2574.63351	0.50628
2572.70495	0.50508
2570.77638	0.50436
2568.84782	0.50392
2566.91926	0.50309
2564.99069	0.50208
2563.06213	0.50114
2561.13356	0.49981
2559.20500	0.49821
2557.27643	0.49704
2555.34787	0.49621
2553.41930	0.49525
2551.49074	0.49446
2549.56218	0.49407
2547.63361	0.49339
2545.70505	0.49213
2543.77648	0.49085
2541.84792	0.48983
2539.91935	0.48883
2537.99079	0.48787
2536.06222	0.48721
2534.13366	0.48650
2532.20510	0.48542
2530.27653	0.48429
2528.34797	0.48308
2526.41940	0.48149
2524.49084	0.47977
2522.56227	0.47813
2520.63371	0.47654
2518.70514	0.47501
2516.77658	0.47325
2514.84802	0.47134
2512.91945	0.46989
2510.99089	0.46870
2509.06232	0.46713
2507.13376	0.46524
2505.20519	0.46343
2503.27663	0.46202
2501.34806	0.46098
2499.41950	0.45974
2497.49094	0.45808
2495.56237	0.45660
2493.63381	0.45541
2491.70524	0.45424
2489.77668	0.45321
2487.84811	0.45221
2485.91955	0.45090
2483.99098	0.44941
2482.06242	0.44815
2480.13386	0.44699
2478.20529	0.44558
2476.27673	0.44411
2474.34816	0.44298
2472.41960	0.44202
2470.49103	0.44065
2468.56247	0.43907
2466.63391	0.43783
2464.70534	0.43671
2462.77678	0.43557
2460.84821	0.43470
2458.91965	0.43410
2456.99108	0.43355
2455.06252	0.43293
2453.13395	0.43220
2451.20539	0.43121
2449.27683	0.43010
2447.34826	0.42942
2445.41970	0.42925
2443.49113	0.42919
2441.56257	0.42897
2439.63400	0.42841
2437.70544	0.42767
2435.77687	0.42716
2433.84831	0.42672
2431.91975	0.42593
2429.99118	0.42514
2428.06262	0.42470
2426.13405	0.42424
2424.20549	0.42346
2422.27692	0.42218
2420.34836	0.42077
2418.41979	0.41998
2416.49123	0.41952
2414.56267	0.41875
2412.63410	0.41768
2410.70554	0.41651
2408.77697	0.41534
2406.84841	0.41436
2404.91984	0.41369
2402.99128	0.41309
2401.06271	0.41219
2399.13415	0.41101
2397.20559	0.40968
2395.27702	0.40834
2393.34846	0.40709
2391.41989	0.40579
2389.49133	0.40417
2387.56276	0.40222
2385.63420	0.40013
2383.70563	0.39800
2381.77707	0.39599
2379.84851	0.39424
2377.91994	0.39250
2375.99138	0.39048
2374.06281	0.38818
2372.13425	0.38616
2370.20568	0.38487
2368.27712	0.38360
2366.34855	0.38255
2364.41999	0.38285
2362.49143	0.38412
2360.56286	0.38595
2358.63430	0.38732
2356.70573	0.38590
2354.77717	0.38259
2352.84860	0.38012
2350.92004	0.37821
2348.99147	0.37577
2347.06291	0.37325
2345.13435	0.37241
2343.20578	0.37389
2341.27722	0.37513
2339.34865	0.37545
2337.42009	0.37592
2335.49152	0.37594
2333.56296	0.37441
2331.63440	0.37275
2329.70583	0.37243
2327.77727	0.37198
2325.84870	0.37075
2323.92014	0.37034
2321.99157	0.37151
2320.06301	0.37268
2318.13444	0.37234
2316.20588	0.37129
2314.27732	0.37073
2312.34875	0.37056
2310.42019	0.37059
2308.49162	0.37112
2306.56306	0.37168
2304.63449	0.37182
2302.70593	0.37187
2300.77736	0.37215
2298.84880	0.37270
2296.92024	0.37342
2294.99167	0.37410
2293.06311	0.37454
2291.13454	0.37484
2289.20598	0.37513
2287.27741	0.37530
2285.34885	0.37531
2283.42028	0.37506
2281.49172	0.37443
2279.56316	0.37362
2277.63459	0.37264
2275.70603	0.37157
2273.77746	0.37066
2271.84890	0.36974
2269.92033	0.36847
2267.99177	0.36703
2266.06320	0.36580
2264.13464	0.36468
2262.20608	0.36335
2260.27751	0.36204
2258.34895	0.36115
2256.42038	0.36067
2254.49182	0.36027
2252.56325	0.35957
2250.63469	0.35862
2248.70612	0.35781
2246.77756	0.35718
2244.84900	0.35649
2242.92043	0.35558
2240.99187	0.35459
2239.06330	0.35357
2237.13474	0.35245
2235.20617	0.35130
2233.27761	0.35028
2231.34904	0.34929
2229.42048	0.34821
2227.49192	0.34709
2225.56335	0.34600
2223.63479	0.34508
2221.70622	0.34439
2219.77766	0.34361
2217.84909	0.34251
2215.92053	0.34140
2213.99196	0.34044
2212.06340	0.33955
2210.13484	0.33890
2208.20627	0.33851
2206.27771	0.33816
2204.34914	0.33800
2202.42058	0.33811
2200.49201	0.33832
2198.56345	0.33862
2196.63488	0.33899
2194.70632	0.33931
2192.77776	0.33964
2190.84919	0.34013
2188.92063	0.34068
2186.99206	0.34107
2185.06350	0.34141
2183.13493	0.34195
2181.20637	0.34254
2179.27781	0.34287
2177.34924	0.34294
2175.42068	0.34298
2173.49211	0.34285
2171.56355	0.34233
2169.63498	0.34177
2167.70642	0.34172
2165.77785	0.34204
2163.84929	0.34215
2161.92073	0.34199
2159.99216	0.34181
2158.06360	0.34162
2156.13503	0.34129
2154.20647	0.34090
2152.27790	0.34062
2150.34934	0.34040
2148.42077	0.34021
2146.49221	0.33992
2144.56365	0.33939
2142.63508	0.33882
2140.70652	0.33824
2138.77795	0.33745
2136.84939	0.33663
2134.92082	0.33607
2132.99226	0.33548
2131.06369	0.33453
2129.13513	0.33342
2127.20657	0.33233
2125.27800	0.33114
2123.34944	0.32977
2121.42087	0.32841
2119.49231	0.32697
2117.56374	0.32531
2115.63518	0.32363
2113.70661	0.32198
2111.77805	0.32025
2109.84949	0.31844
2107.92092	0.31658
2105.99236	0.31480
2104.06379	0.31312
2102.13523	0.31128
2100.20666	0.30936
2098.27810	0.30779
2096.34953	0.30656
2094.42097	0.30535
2092.49241	0.30416
2090.56384	0.30299
2088.63528	0.30173
2086.70671	0.30044
2084.77815	0.29932
2082.84958	0.29830
2080.92102	0.29726
2078.99245	0.29625
2077.06389	0.29532
2075.13533	0.29449
2073.20676	0.29369
2071.27820	0.29291
2069.34963	0.29214
2067.42107	0.29137
2065.49250	0.29080
2063.56394	0.29042
2061.63537	0.28972
2059.70681	0.28884
2057.77825	0.28831
2055.84968	0.28800
2053.92112	0.28752
2051.99255	0.28682
2050.06399	0.28600
2048.13542	0.28507
2046.20686	0.28400
2044.27830	0.28308
2042.34973	0.28260
2040.42117	0.28226
2038.49260	0.28162
2036.56404	0.28090
2034.63547	0.28024
2032.70691	0.27958
2030.77834	0.27904
2028.84978	0.27861
2026.92122	0.27813
2024.99265	0.27755
2023.06409	0.27686
2021.13552	0.27602
2019.20696	0.27523
2017.27839	0.27468
2015.34983	0.27404
2013.42126	0.27300
2011.49270	0.27170
2009.56414	0.27016
2007.63557	0.26838
2005.70701	0.26640
2003.77844	0.26422
2001.84988	0.26199
1999.92131	0.25996
1997.99275	0.25807
1996.06418	0.25604
1994.13562	0.25411
1992.20706	0.25268
1990.27849	0.25140
1988.34993	0.24998
1986.42136	0.24871
1984.49280	0.24770
1982.56423	0.24685
1980.63567	0.24588
1978.70710	0.24462
1976.77854	0.24334
1974.84998	0.24215
1972.92141	0.24083
1970.99285	0.23936
1969.06428	0.23818
1967.13572	0.23764
1965.20715	0.23696
1963.27859	0.23561
1961.35002	0.23401
1959.42146	0.23245
1957.49290	0.23108
1955.56433	0.23006
1953.63577	0.22918
1951.70720	0.22817
1949.77864	0.22691
1947.85007	0.22550
1945.92151	0.22417
1943.99294	0.22342
1942.06438	0.22341
1940.13582	0.22307
1938.20725	0.22209
1936.27869	0.22119
1934.35012	0.22063
1932.42156	0.22037
1930.49299	0.22036
1928.56443	0.22030
1926.63586	0.21989
1924.70730	0.21965
1922.77874	0.22009
1920.85017	0.22017
1918.92161	0.22006
1916.99304	0.22046
1915.06448	0.21997
1913.13591	0.21859
1911.20735	0.21786
1909.27878	0.21802
1907.35022	0.21782
1905.42166	0.21689
1903.49309	0.21597
1901.56453	0.21519
1899.63596	0.21428
1897.70740	0.21340
1895.77883	0.21301
1893.85027	0.21260
1891.92171	0.21155
1889.99314	0.21071
1888.06458	0.21001
1886.13601	0.20858
1884.20745	0.20709
1882.27888	0.20593
1880.35032	0.20476
1878.42175	0.20343
1876.49319	0.20205
1874.56463	0.20053
1872.63606	0.19866
1870.70750	0.19731
1868.77893	0.19800
1866.85037	0.19873
1864.92180	0.19745
1862.99324	0.19580
1861.06467	0.19472
1859.13611	0.19382
1857.20755	0.19270
1855.27898	0.19144
1853.35042	0.19033
1851.42185	0.18930
1849.49329	0.18816
1847.56472	0.18686
1845.63616	0.18649
1843.70759	0.18783
1841.77903	0.18793
1839.85047	0.18642
1837.92190	0.18544
1835.99334	0.18519
1834.06477	0.18432
1832.13621	0.18328
1830.20764	0.18399
1828.27908	0.18509
1826.35051	0.18502
1824.42195	0.18529
1822.49339	0.18524
1820.56482	0.18447
1818.63626	0.18417
1816.70769	0.18430
1814.77913	0.18410
1812.85056	0.18406
1810.92200	0.18513
1808.99343	0.18626
1807.06487	0.18617
1805.13631	0.18530
1803.20774	0.18470
1801.27918	0.18573
1799.35061	0.18770
1797.42205	0.18838
1795.49348	0.18789
1793.56492	0.18868
1791.63635	0.19218
1789.70779	0.19389
1787.77923	0.19324
1785.85066	0.19313
1783.92210	0.19390
1781.99353	0.19500
1780.06497	0.19655
1778.13640	0.19730
1776.20784	0.19660
1774.27927	0.19652
1772.35071	0.19965
1770.42215	0.20310
1768.49358	0.20433
1766.56502	0.20488
1764.63645	0.20511
1762.70789	0.20696
1760.77932	0.21087
1758.85076	0.21438
1756.92220	0.21912
1754.99363	0.22425
1753.06507	0.22870
1751.13650	0.23704
1749.20794	0.25070
1747.27937	0.26256
1745.35081	0.27107
1743.42224	0.27851
1741.49368	0.28613
1739.56512	0.29390
1737.63655	0.29858
1735.70799	0.30201
1733.77942	0.31138
1731.85086	0.32015
1729.92229	0.32449
1727.99373	0.32906
1726.06516	0.33426
1724.13660	0.34151
1722.20804	0.34918
1720.27947	0.35556
1718.35091	0.36791
1716.42234	0.39340
1714.49378	0.41463
1712.56521	0.42991
1710.63665	0.44702
1708.70808	0.46821
1706.77952	0.50002
1704.85096	0.54314
1702.92239	0.58176
1700.99383	0.63333
1699.06526	0.71774
1697.13670	0.79689
1695.20813	0.87111
1693.27957	0.92406
1691.35100	0.96263
1689.42244	1.00841
1687.49388	1.04933
1685.56531	1.08665
1683.63675	1.14129
1681.70818	1.17673
1679.77962	1.19031
1677.85105	1.20057
1675.92249	1.21494
1673.99392	1.23079
1672.06536	1.24069
1670.13680	1.24500
1668.20823	1.24566
1666.27967	1.24278
1664.35110	1.24121
1662.42254	1.24272
1660.49397	1.24232
1658.56541	1.23936
1656.63684	1.23372
1654.70828	1.22580
1652.77972	1.21704
1650.85115	1.21242
1648.92259	1.20867
1646.99402	1.20423
1645.06546	1.20094
1643.13689	1.19632
1641.20833	1.19067
1639.27976	1.18397
1637.35120	1.17758
1635.42264	1.17334
1633.49407	1.16925
1631.56551	1.16470
1629.63694	1.15767
1627.70838	1.14729
1625.77981	1.13567
1623.85125	1.12405
1621.92269	1.11150
1619.99412	1.09898
1618.06556	1.08375
1616.13699	1.06021
1614.20843	1.03733
1612.27986	1.01705
1610.35130	0.99572
1608.42273	0.97421
1606.49417	0.95510
1604.56561	0.94027
1602.63704	0.92980
1600.70848	0.92252
1598.77991	0.91667
1596.85135	0.91300
1594.92278	0.91282
1592.99422	0.91471
1591.06565	0.91747
1589.13709	0.92189
1587.20853	0.92913
1585.27996	0.93906
1583.35140	0.95095
1581.42283	0.96301
1579.49427	0.97336
1577.56570	0.98730
1575.63714	1.01039
1573.70857	1.02554
1571.78001	1.03383
1569.85145	1.04904
1567.92288	1.06724
1565.99432	1.07926
1564.06575	1.08889
1562.13719	1.09469
1560.20862	1.10093
1558.28006	1.11765
1556.35149	1.12372
1554.42293	1.12473
1552.49437	1.12534
1550.56580	1.12427
1548.63724	1.12179
1546.70867	1.11839
1544.78011	1.11355
1542.85154	1.10737
1540.92298	1.10043
1538.99441	1.09029
1537.06585	1.08227
1535.13729	1.07611
1533.20872	1.07017
1531.28016	1.06275
1529.35159	1.05468
1527.42303	1.04677
1525.49446	1.03927
1523.56590	1.03349
1521.63733	1.02947
1519.70877	1.02547
1517.78021	1.01828
1515.85164	1.00706
1513.92308	0.99304
1511.99451	0.97620
1510.06595	0.95720
1508.13738	0.93226
1506.20882	0.89948
1504.28025	0.87922
1502.35169	0.86262
1500.42313	0.84339
1498.49456	0.82035
1496.56600	0.79435
1494.63743	0.77204
1492.70887	0.75445
1490.78030	0.73592
1488.85174	0.71457
1486.92317	0.69744
1484.99461	0.68532
1483.06605	0.67662
1481.13748	0.67132
1479.20892	0.66966
1477.28035	0.67234
1475.35179	0.68103
1473.42322	0.69986
1471.49466	0.72235
1469.56610	0.73315
1467.63753	0.73860
1465.70897	0.74740
1463.78040	0.75868
1461.85184	0.76477
1459.92327	0.76788
1457.99471	0.77784
1456.06614	0.79443
1454.13758	0.79914
1452.20902	0.79825
1450.28045	0.79666
1448.35189	0.79524
1446.42332	0.79331
1444.49476	0.79003
1442.56619	0.78563
1440.63763	0.78066
1438.70906	0.77492
1436.78050	0.76685
1434.85194	0.75677
1432.92337	0.74745
1430.99481	0.73919
1429.06624	0.73243
1427.13768	0.72778
1425.20911	0.72521
1423.28055	0.72429
1421.35198	0.72441
1419.42342	0.72787
1417.49486	0.73304
1415.56629	0.73396
1413.63773	0.73332
1411.70916	0.73382
1409.78060	0.73569
1407.85203	0.73808
1405.92347	0.74181
1403.99490	0.74661
1402.06634	0.74949
1400.13778	0.75157
1398.20921	0.75473
1396.28065	0.75815
1394.35208	0.76143
1392.42352	0.76370
1390.49495	0.76562
1388.56639	0.77088
1386.63782	0.78089
1384.70926	0.79029
1382.78070	0.79707
1380.85213	0.80138
1378.92357	0.80091
1376.99500	0.79437
1375.06644	0.78197
1373.13787	0.76614
1371.20931	0.75025
1369.28074	0.73246
1367.35218	0.71240
1365.42362	0.69362
1363.49505	0.67663
1361.56649	0.66267
1359.63792	0.65364
1357.70936	0.64792
1355.78079	0.64443
1353.85223	0.64285
1351.92366	0.64274
1349.99510	0.64402
1348.06654	0.64639
1346.13797	0.64911
1344.20941	0.65195
1342.28084	0.65538
1340.35228	0.66099
1338.42371	0.66907
1336.49515	0.67722
1334.56659	0.68556
1332.63802	0.69546
1330.70946	0.70638
1328.78089	0.71627
1326.85233	0.72366
1324.92376	0.72871
1322.99520	0.73249
1321.06663	0.73583
1319.13807	0.73894
1317.20951	0.74164
1315.28094	0.74377
1313.35238	0.74537
1311.42381	0.74624
1309.49525	0.74618
1307.56668	0.74501
1305.63812	0.74272
1303.70955	0.73991
1301.78099	0.73708
1299.85243	0.73402
1297.92386	0.73015
1295.99530	0.72564
1294.06673	0.72171
1292.13817	0.71940
1290.20960	0.71901
1288.28104	0.71995
1286.35247	0.72114
1284.42391	0.72200
1282.49535	0.72284
1280.56678	0.72401
1278.63822	0.72552
1276.70965	0.72771
1274.78109	0.73119
1272.85252	0.73605
1270.92396	0.74164
1268.99539	0.74742
1267.06683	0.75278
1265.13827	0.75674
1263.20970	0.75907
1261.28114	0.76000
1259.35257	0.75984
1257.42401	0.75924
1255.49544	0.75876
1253.56688	0.75864
1251.63831	0.75878
1249.70975	0.75909
1247.78119	0.75961
1245.85262	0.75980
1243.92406	0.75949
1241.99549	0.75910
1240.06693	0.75820
1238.13836	0.75602
1236.20980	0.75251
1234.28123	0.74811
1232.35267	0.74301
1230.42411	0.73701
1228.49554	0.73043
1226.56698	0.72345
1224.63841	0.71569
1222.70985	0.70731
1220.78128	0.69905
1218.85272	0.69190
1216.92415	0.68638
1214.99559	0.68238
1213.06703	0.68031
1211.13846	0.68087
1209.20990	0.68299
1207.28133	0.68396
1205.35277	0.68174
1203.42420	0.67611
1201.49564	0.66827
1199.56708	0.65997
1197.63851	0.65228
1195.70995	0.64542
1193.78138	0.63998
1191.85282	0.63700
1189.92425	0.63670
1187.99569	0.63862
1186.06712	0.64224
1184.13856	0.64714
1182.21000	0.65399
1180.28143	0.66361
1178.35287	0.67524
1176.42430	0.68762
1174.49574	0.70054
1172.56717	0.71413
1170.63861	0.72815
1168.71004	0.74292
1166.78148	0.75877
1164.85292	0.77430
1162.92435	0.78699
1160.99579	0.79487
1159.06722	0.79678
1157.13866	0.79215
1155.21009	0.78141
1153.28153	0.76703
1151.35296	0.75155
1149.42440	0.73602
1147.49584	0.72169
1145.56727	0.70988
1143.63871	0.70142
1141.71014	0.69754
1139.78158	0.69891
1137.85301	0.70470
1135.92445	0.71403
1133.99588	0.72690
1132.06732	0.74348
1130.13876	0.76351
1128.21019	0.78545
1126.28163	0.80637
1124.35306	0.82390
1122.42450	0.83816
1120.49593	0.85008
1118.56737	0.85842
1116.63880	0.86132
1114.71024	0.85845
1112.78168	0.85179
1110.85311	0.84406
1108.92455	0.83670
1106.99598	0.82994
1105.06742	0.82296
1103.13885	0.81584
1101.21029	0.81088
1099.28172	0.81031
1097.35316	0.81459
1095.42460	0.82283
1093.49603	0.83442
1091.56747	0.84943
1089.63890	0.86744
1087.71034	0.88848
1085.78177	0.91146
1083.85321	0.93193
1081.92464	0.94692
1079.99608	0.95602
1078.06752	0.95828
1076.13895	0.95455
1074.21039	0.94798
1072.28182	0.94073
1070.35326	0.93127
1068.42469	0.91879
1066.49613	0.90700
1064.56756	0.89717
1062.63900	0.88724
1060.71044	0.87680
1058.78187	0.86565
1056.85331	0.85388
1054.92474	0.84379
1052.99618	0.83710
1051.06761	0.83254
1049.13905	0.82860
1047.21049	0.82645
1045.28192	0.82814
1043.35336	0.83401
1041.42479	0.84219
1039.49623	0.85013
1037.56766	0.85719
1035.63910	0.86366
1033.71053	0.86854
1031.78197	0.87066
1029.85341	0.87010
1027.92484	0.86755
1025.99628	0.86342
1024.06771	0.85825
1022.13915	0.85325
1020.21058	0.84928
1018.28202	0.84618
1016.35345	0.84199
1014.42489	0.83384
1012.49633	0.82031
1010.56776	0.80170
1008.63920	0.77898
1006.71063	0.75395
1004.78207	0.72919
1002.85350	0.70641
1000.92494	0.68601
998.99637	0.66800
997.06781	0.65241
995.13925	0.63862
993.21068	0.62540
991.28212	0.61176
989.35355	0.59801
987.42499	0.58554
985.49642	0.57567
983.56786	0.56937
981.63929	0.56700
979.71073	0.56791
977.78217	0.57095
975.85360	0.57554
973.92504	0.58088
971.99647	0.58502
970.06791	0.58671
968.13934	0.58730
966.21078	0.58858
964.28221	0.59107
962.35365	0.59565
960.42509	0.60352
958.49652	0.61389
956.56796	0.62293
954.63939	0.62542
952.71083	0.61876
950.78226	0.60542
948.85370	0.58977
946.92513	0.57460
944.99657	0.56178
943.06801	0.55263
941.13944	0.54695
939.21088	0.54401
937.28231	0.54368
935.35375	0.54578
933.42518	0.55009
931.49662	0.55693
929.56805	0.56655
927.63949	0.57864
925.71093	0.59265
923.78236	0.60786
921.85380	0.62316
919.92523	0.63671
917.99667	0.64697
916.06810	0.65387
914.13954	0.65821
912.21098	0.66053
910.28241	0.66066
908.35385	0.65834
906.42528	0.65449
904.49672	0.64999
902.56815	0.64421
900.63959	0.63664
898.71102	0.62766
896.78246	0.61786
894.85390	0.60786
892.92533	0.59794
890.99677	0.58867
889.06820	0.58106
887.13964	0.57555
885.21107	0.57218
883.28251	0.57115
881.35394	0.57244
879.42538	0.57535
877.49682	0.57910
875.56825	0.58350
873.63969	0.58845
871.71112	0.59355
869.78256	0.59791
867.85399	0.60052
865.92543	0.60177
863.99686	0.60264
862.06830	0.60302
860.13974	0.60243
858.21117	0.60125
856.28261	0.59965
854.35404	0.59729
852.42548	0.59404
850.49691	0.58999
848.56835	0.58565
846.63978	0.58172
844.71122	0.57886
842.78266	0.57796
840.85409	0.57935
838.92553	0.58257
836.99696	0.58700
835.06840	0.59246
833.13983	0.59970
831.21127	0.60833
829.28270	0.61724
827.35414	0.62683
825.42558	0.63694
823.49701	0.64655
821.56845	0.65545
819.63988	0.66365
817.71132	0.67126
815.78275	0.67808
813.85419	0.68305
811.92562	0.68568
809.99706	0.68661
808.06850	0.68672
806.13993	0.68649
804.21137	0.68538
802.28280	0.68282
800.35424	0.67935
798.42567	0.67579
796.49711	0.67286
794.56854	0.67154
792.63998	0.67201
790.71142	0.67378
788.78285	0.67654
786.85429	0.68061
784.92572	0.68692
782.99716	0.69512
781.06859	0.70299
779.14003	0.70956
777.21147	0.71605
775.28290	0.72326
773.35434	0.72998
771.42577	0.73463
769.49721	0.73804
767.56864	0.74153
765.64008	0.74359
763.71151	0.74272
761.78295	0.74032
759.85439	0.73786
757.92582	0.73558
755.99726	0.73352
754.06869	0.73086
752.14013	0.72764
750.21156	0.72551
748.28300	0.72476
746.35443	0.72447
744.42587	0.72500
742.49731	0.72678
740.56874	0.72866
738.64018	0.73015
736.71161	0.73266
734.78305	0.73745
732.85448	0.74452
730.92592	0.75240
728.99735	0.75896
727.06879	0.76392
725.14023	0.76855
723.21166	0.77226
721.28310	0.77440
719.35453	0.77601
717.42597	0.77640
715.49740	0.77432
713.56884	0.77119
711.64027	0.76866
709.71171	0.76673
707.78315	0.76557
705.85458	0.76452
703.92602	0.76217
701.99745	0.75961
700.06889	0.75804
698.14032	0.75674
696.21176	0.75602
694.28319	0.75616
692.35463	0.75617
690.42607	0.75676
688.49750	0.75969
686.56894	0.76455
684.64037	0.76968
682.71181	0.77501
680.78324	0.78092
678.85468	0.78749
676.92611	0.79504
674.99755	0.80147
673.06899	0.80431
671.14042	0.80553
669.21186	0.80843
667.28329	0.81116
665.35473	0.81095
663.42616	0.80996
661.49760	0.80801
659.56903	0.80474
657.64047	0.80151
655.71191	0.79980
653.78334	0.79948
651.85478	0.79820
649.92621	0.79452
647.99765	0.79225
646.06908	0.79524
644.14052	0.80111
642.21195	0.80670
640.28339	0.81132
638.35483	0.81419
636.42626	0.81585
634.49770	0.81776
632.56913	0.81974
630.64057	0.82060
628.71200	0.81846
626.78344	0.81331
624.85488	0.80827
622.92631	0.80474
620.99775	0.80135
619.06918	0.79768
617.14062	0.79471
615.21205	0.79258
613.28349	0.79091
611.35492	0.78984
609.42636	0.78845
607.49780	0.78612
605.56923	0.78437
603.64067	0.78412
601.71210	0.78449
599.78354	0.78525
