3997.91406	0.70910
3995.98550	0.70838
3994.05693	0.70746
3992.12837	0.70702
3990.19980	0.70679
3988.27124	0.70525
3986.34268	0.70390
3984.41411	0.70487
3982.48555	0.70628
3980.55698	0.70577
3978.62842	0.70376
3976.69985	0.70182
3974.77129	0.70116
3972.84272	0.70196
3970.91416	0.70303
3968.98560	0.70312
3967.05703	0.70251
3965.12847	0.70191
3963.19990	0.70095
3961.27134	0.69991
3959.34277	0.69929
3957.41421	0.69768
3955.48564	0.69609
3953.55708	0.69750
3951.62852	0.70004
3949.69995	0.70077
3947.77139	0.70117
3945.84282	0.70222
3943.91426	0.70252
3941.98569	0.70178
3940.05713	0.70135
3938.12856	0.70119
3936.20000	0.70013
3934.27144	0.69797
3932.34287	0.69597
3930.41431	0.69622
3928.48574	0.69795
3926.55718	0.69936
3924.62861	0.70034
3922.70005	0.70069
3920.77148	0.69975
3918.84292	0.69779
3916.91436	0.69589
3914.98579	0.69524
3913.05723	0.69549
3911.12866	0.69550
3909.20010	0.69611
3907.27153	0.69803
3905.34297	0.69781
3903.41440	0.69380
3901.48584	0.69266
3899.55728	0.69371
3897.62871	0.69278
3895.70015	0.69197
3893.77158	0.69170
3891.84302	0.68936
3889.91445	0.68745
3887.98589	0.68896
3886.05733	0.69109
3884.12876	0.69185
3882.20020	0.69161
3880.27163	0.68906
3878.34307	0.68694
3876.41450	0.68737
3874.48594	0.68969
3872.55737	0.69387
3870.62881	0.69588
3868.70025	0.69409
3866.77168	0.69287
3864.84312	0.68980
3862.91455	0.68545
3860.98599	0.68603
3859.05742	0.69039
3857.12886	0.69642
3855.20029	0.70113
3853.27173	0.69533
3851.34317	0.68729
3849.41460	0.68657
3847.48604	0.68885
3845.55747	0.69148
3843.62891	0.69334
3841.70034	0.69523
3839.77178	0.69475
3837.84321	0.68895
3835.91465	0.68773
3833.98609	0.69167
3832.05752	0.69207
3830.12896	0.68980
3828.20039	0.68882
3826.27183	0.68698
3824.34326	0.68478
3822.41470	0.68302
3820.48613	0.68002
3818.55757	0.67884
3816.62901	0.67710
3814.70044	0.67396
3812.77188	0.67270
3810.84331	0.67312
3808.91475	0.67497
3806.98618	0.67545
3805.05762	0.67416
3803.12905	0.67437
3801.20049	0.67321
3799.27193	0.67082
3797.34336	0.67025
3795.41480	0.67046
3793.48623	0.67085
3791.55767	0.67257
3789.62910	0.67520
3787.70054	0.67574
3785.77197	0.67346
3783.84341	0.67141
3781.91485	0.67178
3779.98628	0.67268
3778.05772	0.67185
3776.12915	0.67047
3774.20059	0.66979
3772.27202	0.66980
3770.34346	0.66984
3768.41489	0.66985
3766.48633	0.66899
3764.55777	0.66815
3762.62920	0.67038
3760.70064	0.67236
3758.77207	0.66945
3756.84351	0.66712
3754.91494	0.66874
3752.98638	0.67066
3751.05781	0.66899
3749.12925	0.66777
3747.20069	0.66932
3745.27212	0.66824
3743.34356	0.66613
3741.41499	0.66833
3739.48643	0.67240
3737.55786	0.67711
3735.62930	0.68145
3733.70074	0.67927
3731.77217	0.67329
3729.84361	0.67069
3727.91504	0.67231
3725.98648	0.67500
3724.05791	0.67526
3722.12935	0.67445
3720.20078	0.67417
3718.27222	0.67417
3716.34366	0.67487
3714.41509	0.67629
3712.48653	0.67585
3710.55796	0.67110
3708.62940	0.66772
3706.70083	0.66803
3704.77227	0.67000
3702.84370	0.67118
3700.91514	0.67140
3698.98658	0.67247
3697.05801	0.67395
3695.12945	0.67501
3693.20088	0.67610
3691.27232	0.67636
3689.34375	0.67226
3687.41519	0.66910
3685.48662	0.67080
3683.55806	0.67367
3681.62950	0.67580
3679.70093	0.67866
3677.77237	0.68363
3675.84380	0.68823
3673.91524	0.69362
3671.98667	0.70068
3670.05811	0.70251
3668.12954	0.70002
3666.20098	0.70164
3664.27242	0.70719
3662.34385	0.71527
3660.41529	0.72350
3658.48672	0.72985
3656.55816	0.73476
3654.62959	0.73936
3652.70103	0.74525
3650.77246	0.75376
3648.84390	0.76004
3646.91534	0.75994
3644.98677	0.76165
3643.05821	0.76717
3641.12964	0.77489
3639.20108	0.78254
3637.27251	0.78979
3635.34395	0.79622
3633.41538	0.80172
3631.48682	0.80891
3629.55826	0.81845
3627.62969	0.82389
3625.70113	0.82672
3623.77256	0.83185
3621.84400	0.83927
3619.91543	0.84617
3617.98687	0.85284
3616.05830	0.86185
3614.12974	0.86958
3612.20118	0.87511
3610.27261	0.88089
3608.34405	0.88692
3606.41548	0.89354
3604.48692	0.90086
3602.55835	0.90904
3600.62979	0.91617
3598.70123	0.91897
3596.77266	0.92122
3594.84410	0.92945
3592.91553	0.94146
3590.98697	0.95261
3589.05840	0.96453
3587.12984	0.97557
3585.20127	0.98294
3583.27271	0.98911
3581.34415	0.99318
3579.41558	0.99443
3577.48702	0.99567
3575.55845	1.00025
3573.62989	1.00896
3571.70132	1.02094
3569.77276	1.03178
3567.84419	1.03527
3565.91563	1.03772
3563.98707	1.04745
3562.05850	1.05775
3560.12994	1.06324
3558.20137	1.06436
3556.27281	1.06586
3554.34424	1.07112
3552.41568	1.07923
3550.48711	1.08748
3548.55855	1.09523
3546.62999	1.10221
3544.70142	1.10703
3542.77286	1.10977
3540.84429	1.11419
3538.91573	1.12272
3536.98716	1.13232
3535.05860	1.13756
3533.13003	1.13891
3531.20147	1.14137
3529.27291	1.14786
3527.34434	1.15824
3525.41578	1.16850
3523.48721	1.17504
3521.55865	1.17950
3519.63008	1.18615
3517.70152	1.19599
3515.77295	1.20478
3513.84439	1.20949
3511.91583	1.21134
3509.98726	1.21519
3508.05870	1.22401
3506.13013	1.23308
3504.20157	1.23993
3502.27300	1.24569
3500.34444	1.25326
3498.41587	1.26552
3496.48731	1.27711
3494.55875	1.28016
3492.63018	1.27903
3490.70162	1.28198
3488.77305	1.28848
3486.84449	1.29206
3484.91592	1.28896
3482.98736	1.28368
3481.05879	1.28346
3479.13023	1.29114
3477.20167	1.30326
3475.27310	1.30956
3473.34454	1.30577
3471.41597	1.30216
3469.48741	1.30692
3467.55884	1.31732
3465.63028	1.32516
3463.70171	1.32655
3461.77315	1.32582
3459.84459	1.32783
3457.91602	1.33001
3455.98746	1.32971
3454.05889	1.32954
3452.13033	1.33101
3450.20176	1.33289
3448.27320	1.33696
3446.34464	1.34662
3444.41607	1.35436
3442.48751	1.35082
3440.55894	1.34399
3438.63038	1.34712
3436.70181	1.35567
3434.77325	1.35681
3432.84468	1.35417
3430.91612	1.35563
3428.98756	1.35804
3427.05899	1.35738
3425.13043	1.35260
3423.20186	1.34605
3421.27330	1.34142
3419.34473	1.33793
3417.41617	1.33553
3415.48760	1.33758
3413.55904	1.34398
3411.63048	1.35200
3409.70191	1.35720
3407.77335	1.35407
3405.84478	1.34721
3403.91622	1.34504
3401.98765	1.34644
3400.05909	1.34874
3398.13052	1.35292
3396.20196	1.35629
3394.27340	1.35428
3392.34483	1.35020
3390.41627	1.34884
3388.48770	1.34642
3386.55914	1.34272
3384.63057	1.34622
3382.70201	1.35297
3380.77344	1.34991
3378.84488	1.34362
3376.91632	1.34468
3374.98775	1.34984
3373.05919	1.35560
3371.13062	1.35996
3369.20206	1.36190
3367.27349	1.36076
3365.34493	1.35773
3363.41636	1.36069
3361.48780	1.36897
3359.55924	1.37509
3357.63067	1.37706
3355.70211	1.37355
3353.77354	1.36824
3351.84498	1.36549
3349.91641	1.36368
3347.98785	1.36455
3346.05928	1.36916
3344.13072	1.37235
3342.20216	1.37202
3340.27359	1.37109
3338.34503	1.36895
3336.41646	1.36296
3334.48790	1.35830
3332.55933	1.35957
3330.63077	1.36060
3328.70220	1.35820
3326.77364	1.36009
3324.84508	1.37186
3322.91651	1.38619
3320.98795	1.38974
3319.05938	1.38291
3317.13082	1.37897
3315.20225	1.38199
3313.27369	1.38607
3311.34513	1.39051
3309.41656	1.39659
3307.48800	1.40054
3305.55943	1.39924
3303.63087	1.39336
3301.70230	1.38970
3299.77374	1.39376
3297.84517	1.39989
3295.91661	1.40077
3293.98805	1.39676
3292.05948	1.39117
3290.13092	1.38582
3288.20235	1.38128
3286.27379	1.37794
3284.34522	1.37740
3282.41666	1.37906
3280.48809	1.37902
3278.55953	1.37805
3276.63097	1.37588
3274.70240	1.36921
3272.77384	1.36391
3270.84527	1.36569
3268.91671	1.37102
3266.98814	1.37389
3265.05958	1.37017
3263.13101	1.36219
3261.20245	1.35666
3259.27389	1.35708
3257.34532	1.35992
3255.41676	1.35750
3253.48819	1.35130
3251.55963	1.35030
3249.63106	1.35234
3247.70250	1.34742
3245.77393	1.33697
3243.84537	1.32989
3241.91681	1.32575
3239.98824	1.32222
3238.05968	1.32146
3236.13111	1.31882
3234.20255	1.31075
3232.27398	1.30471
3230.34542	1.30388
3228.41685	1.30514
3226.48829	1.30991
3224.55973	1.31563
3222.63116	1.31281
3220.70260	1.30292
3218.77403	1.29667
3216.84547	1.29346
3214.91690	1.28695
3212.98834	1.28288
3211.05977	1.28480
3209.13121	1.28329
3207.20265	1.27643
3205.27408	1.27040
3203.34552	1.26756
3201.41695	1.26936
3199.48839	1.27232
3197.55982	1.26821
3195.63126	1.25864
3193.70269	1.25308
3191.77413	1.25234
3189.84557	1.25105
3187.91700	1.24720
3185.98844	1.24180
3184.05987	1.23728
3182.13131	1.23281
3180.20274	1.22697
3178.27418	1.22415
3176.34562	1.22535
3174.41705	1.22458
3172.48849	1.22047
3170.55992	1.21692
3168.63136	1.21432
3166.70279	1.21083
3164.77423	1.20667
3162.84566	1.20226
3160.91710	1.19785
3158.98854	1.19461
3157.05997	1.19246
3155.13141	1.19064
3153.20284	1.18979
3151.27428	1.18886
3149.34571	1.18705
3147.41715	1.18557
3145.48858	1.18336
3143.56002	1.18093
3141.63146	1.18039
3139.70289	1.17979
3137.77433	1.17719
3135.84576	1.17259
3133.91720	1.16720
3131.98863	1.16347
3130.06007	1.16065
3128.13150	1.15783
3126.20294	1.15697
3124.27438	1.15753
3122.34581	1.15811
3120.41725	1.15895
3118.48868	1.15952
3116.56012	1.15880
3114.63155	1.15658
3112.70299	1.15500
3110.77442	1.15639
3108.84586	1.15977
3106.91730	1.16210
3104.98873	1.16142
3103.06017	1.15941
3101.13160	1.15888
3099.20304	1.15883
3097.27447	1.15647
3095.34591	1.15250
3093.41734	1.15186
3091.48878	1.15685
3089.56022	1.16173
3087.63165	1.16103
3085.70309	1.15696
3083.77452	1.15260
3081.84596	1.14877
3079.91739	1.14647
3077.98883	1.14504
3076.06026	1.14200
3074.13170	1.13642
3072.20314	1.13080
3070.27457	1.12844
3068.34601	1.12956
3066.41744	1.12975
3064.48888	1.12380
3062.56031	1.11461
3060.63175	1.10776
3058.70318	1.10202
3056.77462	1.09594
3054.84606	1.09122
3052.91749	1.08773
3050.98893	1.08341
3049.06036	1.07708
3047.13180	1.07012
3045.20323	1.06382
3043.27467	1.05837
3041.34610	1.05479
3039.41754	1.05237
3037.48898	1.04886
3035.56041	1.04348
3033.63185	1.03788
3031.70328	1.03501
3029.77472	1.03404
3027.84615	1.03051
3025.91759	1.02439
3023.98903	1.02055
3022.06046	1.01928
3020.13190	1.01612
3018.20333	1.01245
3016.27477	1.01204
3014.34620	1.01205
3012.41764	1.00878
3010.48907	1.00409
3008.56051	1.00112
3006.63195	0.99895
3004.70338	0.99605
3002.77482	0.99423
3000.84625	0.99334
2998.91769	0.99183
2996.98912	0.99115
2995.06056	0.99207
2993.13199	0.99486
2991.20343	0.99971
2989.27487	1.00414
2987.34630	1.00716
2985.41774	1.01133
2983.48917	1.01804
2981.56061	1.02452
2979.63204	1.02858
2977.70348	1.03395
2975.77491	1.04289
2973.84635	1.05212
2971.91779	1.06063
2969.98922	1.06883
2968.06066	1.07545
2966.13209	1.08217
2964.20353	1.09017
2962.27496	1.09520
2960.34640	1.09551
2958.41783	1.09367
2956.48927	1.09018
2954.56071	1.08547
2952.63214	1.08101
2950.70358	1.07683
2948.77501	1.07526
2946.84645	1.07870
2944.91788	1.08425
2942.98932	1.08939
2941.06075	1.09535
2939.13219	1.10259
2937.20363	1.11008
2935.27506	1.11736
2933.34650	1.12396
2931.41793	1.12920
2929.48937	1.13363
2927.56080	1.13793
2925.63224	1.14119
2923.70367	1.14207
2921.77511	1.14176
2919.84655	1.14122
2917.91798	1.13644
2915.98942	1.12371
2914.06085	1.10496
2912.13229	1.08508
2910.20372	1.06748
2908.27516	1.05277
2906.34659	1.04112
2904.41803	1.03206
2902.48947	1.02512
2900.56090	1.02059
2898.63234	1.01728
2896.70377	1.01464
2894.77521	1.01287
2892.84664	1.01034
2890.91808	1.00686
2888.98952	1.00336
2887.06095	0.99911
2885.13239	0.99568
2883.20382	0.99534
2881.27526	0.99604
2879.34669	0.99636
2877.41813	0.99732
2875.48956	0.99777
2873.56100	0.99582
2871.63244	0.99155
2869.70387	0.98548
2867.77531	0.97716
2865.84674	0.96759
2863.91818	0.96076
2861.98961	0.95828
2860.06105	0.95802
2858.13248	0.95929
2856.20392	0.96313
2854.27536	0.96926
2852.34679	0.97475
2850.41823	0.97295
2848.48966	0.95780
2846.56110	0.93206
2844.63253	0.90506
2842.70397	0.88242
2840.77540	0.86472
2838.84684	0.85157
2836.91828	0.84173
2834.98971	0.83415
2833.06115	0.82902
2831.13258	0.82589
2829.20402	0.82311
2827.27545	0.81897
2825.34689	0.81376
2823.41832	0.80915
2821.48976	0.80541
2819.56120	0.80234
2817.63263	0.80009
2815.70407	0.79771
2813.77550	0.79442
2811.84694	0.79018
2809.91837	0.78551
2807.98981	0.78178
2806.06124	0.77904
2804.13268	0.77616
2802.20412	0.77282
2800.27555	0.76901
2798.34699	0.76533
2796.41842	0.76208
2794.48986	0.75836
2792.56129	0.75399
2790.63273	0.74940
2788.70416	0.74501
2786.77560	0.74102
2784.84704	0.73707
2782.91847	0.73295
2780.98991	0.72880
2779.06134	0.72513
2777.13278	0.72226
2775.20421	0.71954
2773.27565	0.71653
2771.34708	0.71358
2769.41852	0.71083
2767.48996	0.70812
2765.56139	0.70577
2763.63283	0.70410
2761.70426	0.70279
2759.77570	0.70158
2757.84713	0.69999
2755.91857	0.69829
2753.99001	0.69765
2752.06144	0.69724
2750.13288	0.69580
2748.20431	0.69417
2746.27575	0.69298
2744.34718	0.69181
2742.41862	0.69053
2740.49005	0.68937
2738.56149	0.68802
2736.63293	0.68611
2734.70436	0.68424
2732.77580	0.68260
2730.84723	0.68015
2728.91867	0.67672
2726.99010	0.67338
2725.06154	0.67071
2723.13297	0.66865
2721.20441	0.66649
2719.27585	0.66344
2717.34728	0.65983
2715.41872	0.65641
2713.49015	0.65298
2711.56159	0.64943
2709.63302	0.64644
2707.70446	0.64406
2705.77589	0.64187
2703.84733	0.63938
2701.91877	0.63651
2699.99020	0.63436
2698.06164	0.63337
2696.13307	0.63249
2694.20451	0.63093
2692.27594	0.62919
2690.34738	0.62835
2688.41881	0.62847
2686.49025	0.62897
2684.56169	0.62963
2682.63312	0.62995
2680.70456	0.62962
2678.77599	0.62887
2676.84743	0.62779
2674.91886	0.62667
2672.99030	0.62578
2671.06173	0.62451
2669.13317	0.62309
2667.20461	0.62231
2665.27604	0.62147
2663.34748	0.61997
2661.41891	0.61824
2659.49035	0.61625
2657.56178	0.61394
2655.63322	0.61181
2653.70465	0.60979
2651.77609	0.60750
2649.84753	0.60535
2647.91896	0.60318
2645.99040	0.60052
2644.06183	0.59819
2642.13327	0.59642
2640.20470	0.59439
2638.27614	0.59214
2636.34757	0.59019
2634.41901	0.58904
2632.49045	0.58896
2630.56188	0.58902
2628.63332	0.58863
2626.70475	0.58810
2624.77619	0.58738
2622.84762	0.58658
2620.91906	0.58631
2618.99049	0.58685
2617.06193	0.58767
2615.13337	0.58804
2613.20480	0.58823
2611.27624	0.58851
2609.34767	0.58805
2607.41911	0.58695
2605.49054	0.58633
2603.56198	0.58611
2601.63342	0.58559
2599.70485	0.58471
2597.77629	0.58359
2595.84772	0.58247
2593.91916	0.58142
2591.99059	0.57999
2590.06203	0.57840
2588.13346	0.57701
2586.20490	0.57524
2584.27634	0.57307
2582.34777	0.57092
2580.41921	0.56841
2578.49064	0.56581
2576.56208	0.56422
2574.63351	0.56348
2572.70495	0.56253
2570.77638	0.56130
2568.84782	0.56025
2566.91926	0.55945
2564.99069	0.55879
2563.06213	0.55804
2561.13356	0.55721
2559.20500	0.55658
2557.27643	0.55635
2555.34787	0.55655
2553.41930	0.55676
2551.49074	0.55663
2549.56218	0.55641
2547.63361	0.55635
2545.70505	0.55641
2543.77648	0.55638
2541.84792	0.55615
2539.91935	0.55577
2537.99079	0.55531
2536.06222	0.55481
2534.13366	0.55418
2532.20510	0.55317
2530.27653	0.55190
2528.34797	0.55075
2526.41940	0.54921
2524.49084	0.54671
2522.56227	0.54417
2520.63371	0.54254
2518.70514	0.54119
2516.77658	0.53905
2514.84802	0.53616
2512.91945	0.53327
2510.99089	0.53093
2509.06232	0.52938
2507.13376	0.52785
2505.20519	0.52547
2503.27663	0.52305
2501.34806	0.52158
2499.41950	0.52038
2497.49094	0.51871
2495.56237	0.51687
2493.63381	0.51543
2491.70524	0.51453
2489.77668	0.51412
2487.84811	0.51393
2485.91955	0.51362
2483.99098	0.51324
2482.06242	0.51284
2480.13386	0.51202
2478.20529	0.51094
2476.27673	0.51029
2474.34816	0.50995
2472.41960	0.50942
2470.49103	0.50849
2468.56247	0.50709
2466.63391	0.50541
2464.70534	0.50373
2462.77678	0.50214
2460.84821	0.50064
2458.91965	0.49921
2456.99108	0.49771
2455.06252	0.49575
2453.13395	0.49333
2451.20539	0.49105
2449.27683	0.48929
2447.34826	0.48790
2445.41970	0.48628
2443.49113	0.48431
2441.56257	0.48246
2439.63400	0.48071
2437.70544	0.47904
2435.77687	0.47784
2433.84831	0.47698
2431.91975	0.47588
2429.99118	0.47437
2428.06262	0.47281
2426.13405	0.47165
2424.20549	0.47100
2422.27692	0.47055
2420.34836	0.47027
2418.41979	0.47039
2416.49123	0.47045
2414.56267	0.46999
2412.63410	0.46921
2410.70554	0.46874
2408.77697	0.46881
2406.84841	0.46846
2404.91984	0.46749
2402.99128	0.46701
2401.06271	0.46702
2399.13415	0.46661
2397.20559	0.46557
2395.27702	0.46426
2393.34846	0.46319
2391.41989	0.46264
2389.49133	0.46225
2387.56276	0.46129
2385.63420	0.45965
2383.70563	0.45817
2381.77707	0.45723
2379.84851	0.45596
2377.91994	0.45392
2375.99138	0.45180
2374.06281	0.45028
2372.13425	0.44948
2370.20568	0.44838
2368.27712	0.44534
2366.34855	0.44128
2364.41999	0.43842
2362.49143	0.43748
2360.56286	0.43676
2358.63430	0.43327
2356.70573	0.43070
2354.77717	0.43075
2352.84860	0.42921
2350.92004	0.42790
2348.99147	0.42885
2347.06291	0.43051
2345.13435	0.43103
2343.20578	0.43003
2341.27722	0.42766
2339.34865	0.42416
2337.42009	0.42104
2335.49152	0.41897
2333.56296	0.41799
2331.63440	0.41726
2329.70583	0.41562
2327.77727	0.41376
2325.84870	0.41288
2323.92014	0.41285
2321.99157	0.41241
2320.06301	0.41113
2318.13444	0.40979
2316.20588	0.40840
2314.27732	0.40640
2312.34875	0.40431
2310.42019	0.40313
2308.49162	0.40246
2306.56306	0.40144
2304.63449	0.39995
2302.70593	0.39827
2300.77736	0.39687
2298.84880	0.39583
2296.92024	0.39461
2294.99167	0.39293
2293.06311	0.39115
2291.13454	0.38959
2289.20598	0.38828
2287.27741	0.38724
2285.34885	0.38656
2283.42028	0.38598
2281.49172	0.38514
2279.56316	0.38422
2277.63459	0.38337
2275.70603	0.38256
2273.77746	0.38192
2271.84890	0.38129
2269.92033	0.38065
2267.99177	0.38020
2266.06320	0.38002
2264.13464	0.37993
2262.20608	0.37971
2260.27751	0.37920
2258.34895	0.37844
2256.42038	0.37793
2254.49182	0.37793
2252.56325	0.37802
2250.63469	0.37778
2248.70612	0.37740
2246.77756	0.37713
2244.84900	0.37676
2242.92043	0.37624
2240.99187	0.37587
2239.06330	0.37555
2237.13474	0.37519
2235.20617	0.37483
2233.27761	0.37423
2231.34904	0.37339
2229.42048	0.37250
2227.49192	0.37171
2225.56335	0.37131
2223.63479	0.37128
2221.70622	0.37108
2219.77766	0.37038
2217.84909	0.36958
2215.92053	0.36888
2213.99196	0.36787
2212.06340	0.36658
2210.13484	0.36558
2208.20627	0.36499
2206.27771	0.36444
2204.34914	0.36376
2202.42058	0.36305
2200.49201	0.36230
2198.56345	0.36150
2196.63488	0.36080
2194.70632	0.36015
2192.77776	0.35934
2190.84919	0.35845
2188.92063	0.35755
2186.99206	0.35652
2185.06350	0.35537
2183.13493	0.35419
2181.20637	0.35316
2179.27781	0.35226
2177.34924	0.35129
2175.42068	0.35029
2173.49211	0.34919
2171.56355	0.34784
2169.63498	0.34652
2167.70642	0.34547
2165.77785	0.34456
2163.84929	0.34348
2161.92073	0.34214
2159.99216	0.34075
2158.06360	0.33949
2156.13503	0.33843
2154.20647	0.33764
2152.27790	0.33690
2150.34934	0.33593
2148.42077	0.33478
2146.49221	0.33380
2144.56365	0.33305
2142.63508	0.33236
2140.70652	0.33181
2138.77795	0.33158
2136.84939	0.33156
2134.92082	0.33157
2132.99226	0.33153
2131.06369	0.33150
2129.13513	0.33152
2127.20657	0.33152
2125.27800	0.33154
2123.34944	0.33168
2121.42087	0.33186
2119.49231	0.33189
2117.56374	0.33195
2115.63518	0.33222
2113.70661	0.33259
2111.77805	0.33283
2109.84949	0.33286
2107.92092	0.33292
2105.99236	0.33321
2104.06379	0.33356
2102.13523	0.33377
2100.20666	0.33400
2098.27810	0.33445
2096.34953	0.33491
2094.42097	0.33520
2092.49241	0.33548
2090.56384	0.33592
2088.63528	0.33646
2086.70671	0.33700
2084.77815	0.33756
2082.84958	0.33813
2080.92102	0.33855
2078.99245	0.33879
2077.06389	0.33920
2075.13533	0.34002
2073.20676	0.34096
2071.27820	0.34181
2069.34963	0.34257
2067.42107	0.34328
2065.49250	0.34398
2063.56394	0.34459
2061.63537	0.34497
2059.70681	0.34521
2057.77825	0.34537
2055.84968	0.34534
2053.92112	0.34521
2051.99255	0.34506
2050.06399	0.34481
2048.13542	0.34433
2046.20686	0.34359
2044.27830	0.34275
2042.34973	0.34188
2040.42117	0.34075
2038.49260	0.33920
2036.56404	0.33741
2034.63547	0.33551
2032.70691	0.33340
2030.77834	0.33113
2028.84978	0.32896
2026.92122	0.32695
2024.99265	0.32494
2023.06409	0.32298
2021.13552	0.32125
2019.20696	0.31946
2017.27839	0.31728
2015.34983	0.31527
2013.42126	0.31395
2011.49270	0.31287
2009.56414	0.31158
2007.63557	0.31029
2005.70701	0.30929
2003.77844	0.30863
2001.84988	0.30822
1999.92131	0.30789
1997.99275	0.30752
1996.06418	0.30721
1994.13562	0.30722
1992.20706	0.30730
1990.27849	0.30712
1988.34993	0.30688
1986.42136	0.30672
1984.49280	0.30656
1982.56423	0.30645
1980.63567	0.30636
1978.70710	0.30611
1976.77854	0.30573
1974.84998	0.30547
1972.92141	0.30525
1970.99285	0.30480
1969.06428	0.30411
1967.13572	0.30324
1965.20715	0.30230
1963.27859	0.30140
1961.35002	0.30037
1959.42146	0.29931
1957.49290	0.29848
1955.56433	0.29775
1953.63577	0.29694
1951.70720	0.29613
1949.77864	0.29538
1947.85007	0.29479
1945.92151	0.29454
1943.99294	0.29452
1942.06438	0.29449
1940.13582	0.29457
1938.20725	0.29495
1936.27869	0.29558
1934.35012	0.29645
1932.42156	0.29750
1930.49299	0.29855
1928.56443	0.29956
1926.63586	0.30075
1924.70730	0.30215
1922.77874	0.30352
1920.85017	0.30475
1918.92161	0.30603
1916.99304	0.30725
1915.06448	0.30799
1913.13591	0.30838
1911.20735	0.30872
1909.27878	0.30884
1907.35022	0.30848
1905.42166	0.30789
1903.49309	0.30709
1901.56453	0.30573
1899.63596	0.30379
1897.70740	0.30162
1895.77883	0.29946
1893.85027	0.29735
1891.92171	0.29513
1889.99314	0.29253
1888.06458	0.28989
1886.13601	0.28742
1884.20745	0.28486
1882.27888	0.28249
1880.35032	0.28056
1878.42175	0.27890
1876.49319	0.27737
1874.56463	0.27592
1872.63606	0.27481
1870.70750	0.27420
1868.77893	0.27383
1866.85037	0.27358
1864.92180	0.27374
1862.99324	0.27419
1861.06467	0.27466
1859.13611	0.27535
1857.20755	0.27637
1855.27898	0.27737
1853.35042	0.27818
1851.42185	0.27921
1849.49329	0.28060
1847.56472	0.28180
1845.63616	0.28244
1843.70759	0.28278
1841.77903	0.28306
1839.85047	0.28304
1837.92190	0.28260
1835.99334	0.28196
1834.06477	0.28141
1832.13621	0.28088
1830.20764	0.28008
1828.27908	0.27931
1826.35051	0.27875
1824.42195	0.27810
1822.49339	0.27734
1820.56482	0.27662
1818.63626	0.27617
1816.70769	0.27603
1814.77913	0.27614
1812.85056	0.27650
1810.92200	0.27709
1808.99343	0.27781
1807.06487	0.27866
1805.13631	0.27980
1803.20774	0.28135
1801.27918	0.28356
1799.35061	0.28615
1797.42205	0.28860
1795.49348	0.29097
1793.56492	0.29377
1791.63635	0.29726
1789.70779	0.30039
1787.77923	0.30324
1785.85066	0.30640
1783.92210	0.30965
1781.99353	0.31300
1780.06497	0.31664
1778.13640	0.31991
1776.20784	0.32266
1774.27927	0.32570
1772.35071	0.32945
1770.42215	0.33270
1768.49358	0.33530
1766.56502	0.33800
1764.63645	0.34057
1762.70789	0.34356
1760.77932	0.34739
1758.85076	0.35138
1756.92220	0.35626
1754.99363	0.36149
1753.06507	0.36667
1751.13650	0.37390
1749.20794	0.38347
1747.27937	0.39227
1745.35081	0.39999
1743.42224	0.40745
1741.49368	0.41465
1739.56512	0.42128
1737.63655	0.42594
1735.70799	0.42947
1733.77942	0.43457
1731.85086	0.43877
1729.92229	0.44143
1727.99373	0.44445
1726.06516	0.44804
1724.13660	0.45256
1722.20804	0.45723
1720.27947	0.46176
1718.35091	0.46892
1716.42234	0.48082
1714.49378	0.49130
1712.56521	0.50061
1710.63665	0.51204
1708.70808	0.52663
1706.77952	0.54848
1704.85096	0.57803
1702.92239	0.60565
1700.99383	0.64253
1699.06526	0.69906
1697.13670	0.75242
1695.20813	0.80363
1693.27957	0.83977
1691.35100	0.86629
1689.42244	0.89666
1687.49388	0.92447
1685.56531	0.95165
1683.63675	0.98896
1681.70818	1.01396
1679.77962	1.02822
1677.85105	1.04128
1675.92249	1.05540
1673.99392	1.06850
1672.06536	1.07721
1670.13680	1.08531
1668.20823	1.09469
1666.27967	1.10084
1664.35110	1.10585
1662.42254	1.11052
1660.49397	1.11322
1658.56541	1.11497
1656.63684	1.11599
1654.70828	1.11768
1652.77972	1.11825
1650.85115	1.11458
1648.92259	1.11069
1646.99402	1.10775
1645.06546	1.10682
1643.13689	1.10500
1641.20833	1.10226
1639.27976	1.09895
1637.35120	1.09584
1635.42264	1.09250
1633.49407	1.08837
1631.56551	1.08457
1629.63694	1.08034
1627.70838	1.07651
1625.77981	1.07287
1623.85125	1.06678
1621.92269	1.05880
1619.99412	1.05175
1618.06556	1.04290
1616.13699	1.02906
1614.20843	1.01627
1612.27986	1.00442
1610.35130	0.99038
1608.42273	0.97556
1606.49417	0.96349
1604.56561	0.95407
1602.63704	0.94580
1600.70848	0.93967
1598.77991	0.93581
1596.85135	0.93331
1594.92278	0.93235
1592.99422	0.93320
1591.06565	0.93546
1589.13709	0.93938
1587.20853	0.94532
1585.27996	0.95231
1583.35140	0.95956
1581.42283	0.96673
1579.49427	0.97367
1577.56570	0.98287
1575.63714	0.99558
1573.70857	1.00308
1571.78001	1.00741
1569.85145	1.01623
1567.92288	1.02704
1565.99432	1.03353
1564.06575	1.03803
1562.13719	1.04139
1560.20862	1.04693
1558.28006	1.06012
1556.35149	1.06490
1554.42293	1.06460
1552.49437	1.06378
1550.56580	1.06350
1548.63724	1.06450
1546.70867	1.06607
1544.78011	1.06606
1542.85154	1.06213
1540.92298	1.05556
1538.99441	1.05038
1537.06585	1.04807
1535.13729	1.04539
1533.20872	1.03931
1531.28016	1.03188
1529.35159	1.02621
1527.42303	1.02147
1525.49446	1.01776
1523.56590	1.01394
1521.63733	1.00841
1519.70877	1.00511
1517.78021	1.00146
1515.85164	0.99348
1513.92308	0.98377
1511.99451	0.97348
1510.06595	0.96341
1508.13738	0.94915
1506.20882	0.92097
1504.28025	0.90367
1502.35169	0.89295
1500.42313	0.88066
1498.49456	0.86516
1496.56600	0.84794
1494.63743	0.83448
1492.70887	0.82448
1490.78030	0.81297
1488.85174	0.79933
1486.92317	0.79093
1484.99461	0.78714
1483.06605	0.78529
1481.13748	0.78515
1479.20892	0.78722
1477.28035	0.79237
1475.35179	0.80156
1473.42322	0.81693
1471.49466	0.83392
1469.56610	0.84295
1467.63753	0.84812
1465.70897	0.85415
1463.78040	0.86057
1461.85184	0.86437
1459.92327	0.86720
1457.99471	0.87328
1456.06614	0.88003
1454.13758	0.88116
1452.20902	0.88116
1450.28045	0.88114
1448.35189	0.88023
1446.42332	0.87860
1444.49476	0.87680
1442.56619	0.87436
1440.63763	0.87150
1438.70906	0.86832
1436.78050	0.86397
1434.85194	0.85970
1432.92337	0.85668
1430.99481	0.85322
1429.06624	0.84916
1427.13768	0.84670
1425.20911	0.84644
1423.28055	0.84737
1421.35198	0.84831
1419.42342	0.85013
1417.49486	0.85272
1415.56629	0.85352
1413.63773	0.85279
1411.70916	0.85074
1409.78060	0.84797
1407.85203	0.84614
1405.92347	0.84606
1403.99490	0.84677
1402.06634	0.84646
1400.13778	0.84488
1398.20921	0.84290
1396.28065	0.84131
1394.35208	0.84002
1392.42352	0.83962
1390.49495	0.84074
1388.56639	0.84431
1386.63782	0.85103
1384.70926	0.85894
1382.78070	0.86642
1380.85213	0.87232
1378.92357	0.87499
1376.99500	0.87387
1375.06644	0.86859
1373.13787	0.86000
1371.20931	0.85101
1369.28074	0.84062
1367.35218	0.82761
1365.42362	0.81419
1363.49505	0.80079
1361.56649	0.78885
1359.63792	0.78097
1357.70936	0.77586
1355.78079	0.77219
1353.85223	0.76935
1351.92366	0.76689
1349.99510	0.76522
1348.06654	0.76457
1346.13797	0.76405
1344.20941	0.76328
1342.28084	0.76294
1340.35228	0.76359
1338.42371	0.76504
1336.49515	0.76732
1334.56659	0.77101
1332.63802	0.77624
1330.70946	0.78215
1328.78089	0.78710
1326.85233	0.78975
1324.92376	0.79010
1322.99520	0.78956
1321.06663	0.78943
1319.13807	0.78956
1317.20951	0.78965
1315.28094	0.79019
1313.35238	0.79087
1311.42381	0.79115
1309.49525	0.79113
1307.56668	0.79086
1305.63812	0.79039
1303.70955	0.78962
1301.78099	0.78841
1299.85243	0.78703
1297.92386	0.78521
1295.99530	0.78309
1294.06673	0.78175
1292.13817	0.78159
1290.20960	0.78220
1288.28104	0.78321
1286.35247	0.78452
1284.42391	0.78598
1282.49535	0.78716
1280.56678	0.78772
1278.63822	0.78778
1276.70965	0.78786
1274.78109	0.78823
1272.85252	0.78885
1270.92396	0.78978
1268.99539	0.79101
1267.06683	0.79229
1265.13827	0.79284
1263.20970	0.79148
1261.28114	0.78837
1259.35257	0.78464
1257.42401	0.78079
1255.49544	0.77718
1253.56688	0.77409
1251.63831	0.77134
1249.70975	0.76860
1247.78119	0.76617
1245.85262	0.76460
1243.92406	0.76355
1241.99549	0.76236
1240.06693	0.76109
1238.13836	0.75983
1236.20980	0.75844
1234.28123	0.75691
1232.35267	0.75515
1230.42411	0.75311
1228.49554	0.75057
1226.56698	0.74705
1224.63841	0.74284
1222.70985	0.73881
1220.78128	0.73479
1218.85272	0.73024
1216.92415	0.72605
1214.99559	0.72345
1213.06703	0.72277
1211.13846	0.72399
1209.20990	0.72609
1207.28133	0.72665
1205.35277	0.72390
1203.42420	0.71744
1201.49564	0.70754
1199.56708	0.69530
1197.63851	0.68206
1195.70995	0.66879
1193.78138	0.65633
1191.85282	0.64552
1189.92425	0.63712
1187.99569	0.63140
1186.06712	0.62794
1184.13856	0.62627
1182.21000	0.62669
1180.28143	0.62997
1178.35287	0.63631
1176.42430	0.64511
1174.49574	0.65563
1172.56717	0.66717
1170.63861	0.67973
1168.71004	0.69413
1166.78148	0.71049
1164.85292	0.72746
1162.92435	0.74304
1160.99579	0.75523
1159.06722	0.76296
1157.13866	0.76632
1155.21009	0.76612
1153.28153	0.76355
1151.35296	0.75876
1149.42440	0.75163
1147.49584	0.74333
1145.56727	0.73498
1143.63871	0.72744
1141.71014	0.72234
1139.78158	0.72052
1137.85301	0.72113
1135.92445	0.72370
1133.99588	0.72917
1132.06732	0.73846
1130.13876	0.75105
1128.21019	0.76514
1126.28163	0.77970
1124.35306	0.79392
1122.42450	0.80608
1120.49593	0.81545
1118.56737	0.82222
1116.63880	0.82599
1114.71024	0.82642
1112.78168	0.82419
1110.85311	0.82049
1108.92455	0.81617
1106.99598	0.81242
1105.06742	0.80990
1103.13885	0.80790
1101.21029	0.80560
1099.28172	0.80367
1097.35316	0.80443
1095.42460	0.80902
1093.49603	0.81668
1091.56747	0.82644
1089.63890	0.83704
1087.71034	0.84770
1085.78177	0.85910
1083.85321	0.87138
1081.92464	0.88253
1079.99608	0.88981
1078.06752	0.89240
1076.13895	0.89173
1074.21039	0.88907
1072.28182	0.88458
1070.35326	0.87787
1068.42469	0.86911
1066.49613	0.86071
1064.56756	0.85458
1062.63900	0.84914
1060.71044	0.84246
1058.78187	0.83465
1056.85331	0.82726
1054.92474	0.82155
1052.99618	0.81737
1051.06761	0.81469
1049.13905	0.81345
1047.21049	0.81335
1045.28192	0.81502
1043.35336	0.81878
1041.42479	0.82385
1039.49623	0.82845
1037.56766	0.83057
1035.63910	0.83052
1033.71053	0.83023
1031.78197	0.82966
1029.85341	0.82745
1027.92484	0.82289
1025.99628	0.81622
1024.06771	0.80869
1022.13915	0.80215
1020.21058	0.79787
1018.28202	0.79542
1016.35345	0.79394
1014.42489	0.79275
1012.49633	0.78993
1010.56776	0.78418
1008.63920	0.77615
1006.71063	0.76650
1004.78207	0.75662
1002.85350	0.74885
1000.92494	0.74377
998.99637	0.74016
997.06781	0.73695
995.13925	0.73279
993.21068	0.72642
991.28212	0.71777
989.35355	0.70655
987.42499	0.69222
985.49642	0.67597
983.56786	0.65984
981.63929	0.64555
979.71073	0.63368
977.78217	0.62319
975.85360	0.61325
973.92504	0.60329
971.99647	0.59189
970.06791	0.57852
968.13934	0.56437
966.21078	0.55143
964.28221	0.54189
962.35365	0.53772
960.42509	0.53996
958.49652	0.54771
956.56796	0.55698
954.63939	0.56198
952.71083	0.55965
950.78226	0.55100
948.85370	0.53912
946.92513	0.52749
944.99657	0.51824
943.06801	0.51162
941.13944	0.50671
939.21088	0.50230
937.28231	0.49798
935.35375	0.49428
933.42518	0.49171
931.49662	0.49017
929.56805	0.48914
927.63949	0.48851
925.71093	0.48864
923.78236	0.48924
921.85380	0.48952
919.92523	0.48896
917.99667	0.48738
916.06810	0.48516
914.13954	0.48315
912.21098	0.48178
910.28241	0.48107
908.35385	0.48139
906.42528	0.48298
904.49672	0.48527
902.56815	0.48755
900.63959	0.48918
898.71102	0.48922
896.78246	0.48736
894.85390	0.48424
892.92533	0.48077
890.99677	0.47765
889.06820	0.47492
887.13964	0.47276
885.21107	0.47227
883.28251	0.47407
881.35394	0.47758
879.42538	0.48221
877.49682	0.48785
875.56825	0.49433
873.63969	0.50157
871.71112	0.50948
869.78256	0.51760
867.85399	0.52585
865.92543	0.53450
863.99686	0.54367
862.06830	0.55339
860.13974	0.56299
858.21117	0.57172
856.28261	0.58000
854.35404	0.58825
852.42548	0.59577
850.49691	0.60195
848.56835	0.60724
846.63978	0.61202
844.71122	0.61640
842.78266	0.62096
840.85409	0.62557
838.92553	0.62944
836.99696	0.63254
835.06840	0.63478
833.13983	0.63572
831.21127	0.63593
829.28270	0.63691
827.35414	0.63893
825.42558	0.64105
823.49701	0.64330
821.56845	0.64594
819.63988	0.64865
817.71132	0.65175
815.78275	0.65530
813.85419	0.65925
811.92562	0.66446
809.99706	0.67085
808.06850	0.67701
806.13993	0.68235
804.21137	0.68759
802.28280	0.69268
800.35424	0.69667
798.42567	0.69981
796.49711	0.70275
794.56854	0.70569
792.63998	0.70910
790.71142	0.71317
788.78285	0.71751
786.85429	0.72133
784.92572	0.72378
782.99716	0.72497
781.06859	0.72571
779.14003	0.72604
777.21147	0.72581
775.28290	0.72581
773.35434	0.72669
771.42577	0.72785
769.49721	0.72780
767.56864	0.72573
765.64008	0.72306
763.71151	0.72196
761.78295	0.72245
759.85439	0.72287
757.92582	0.72286
755.99726	0.72317
754.06869	0.72373
752.14013	0.72438
750.21156	0.72568
748.28300	0.72719
746.35443	0.72846
744.42587	0.73024
742.49731	0.73276
740.56874	0.73548
738.64018	0.73795
736.71161	0.74051
734.78305	0.74479
732.85448	0.75157
730.92592	0.75932
728.99735	0.76674
727.06879	0.77453
725.14023	0.78344
723.21166	0.79280
721.28310	0.80220
719.35453	0.81097
717.42597	0.81753
715.49740	0.82326
713.56884	0.83040
711.64027	0.83724
709.71171	0.84109
707.78315	0.84349
705.85458	0.84725
703.92602	0.85084
701.99745	0.85196
700.06889	0.85104
698.14032	0.84836
696.21176	0.84456
694.28319	0.84092
692.35463	0.83875
690.42607	0.83837
688.49750	0.83734
686.56894	0.83447
684.64037	0.83168
682.71181	0.83099
680.78324	0.83289
678.85468	0.83478
676.92611	0.83391
674.99755	0.83233
673.06899	0.83384
671.14042	0.83828
669.21186	0.84371
667.28329	0.84582
665.35473	0.84469
663.42616	0.84450
661.49760	0.84412
659.56903	0.84004
657.64047	0.83361
655.71191	0.82917
653.78334	0.82562
651.85478	0.81934
649.92621	0.81053
647.99765	0.80194
646.06908	0.79390
644.14052	0.78402
642.21195	0.77237
640.28339	0.76219
638.35483	0.75460
636.42626	0.74733
634.49770	0.73937
632.56913	0.73191
630.64057	0.72508
628.71200	0.71887
626.78344	0.71434
624.85488	0.71192
622.92631	0.71128
620.99775	0.71167
619.06918	0.71319
617.14062	0.71783
615.21205	0.72602
613.28349	0.73561
611.35492	0.74546
609.42636	0.75607
607.49780	0.76798
605.56923	0.78015
603.64067	0.79165
601.71210	0.80309
599.78354	0.81590
