3997.91406	0.31528
3995.98550	0.31546
3994.05693	0.31580
3992.12837	0.31631
3990.19980	0.31619
3988.27124	0.31513
3986.34268	0.31472
3984.41411	0.31529
3982.48555	0.31543
3980.55698	0.31551
3978.62842	0.31535
3976.69985	0.31363
3974.77129	0.31144
3972.84272	0.31084
3970.91416	0.31223
3968.98560	0.31433
3967.05703	0.31511
3965.12847	0.31409
3963.19990	0.31290
3961.27134	0.31225
3959.34277	0.31164
3957.41421	0.31131
3955.48564	0.31098
3953.55708	0.31008
3951.62852	0.30981
3949.69995	0.31118
3947.77139	0.31178
3945.84282	0.31002
3943.91426	0.30909
3941.98569	0.30996
3940.05713	0.30972
3938.12856	0.30853
3936.20000	0.30823
3934.27144	0.30925
3932.34287	0.31059
3930.41431	0.31075
3928.48574	0.30942
3926.55718	0.30821
3924.62861	0.30872
3922.70005	0.30862
3920.77148	0.30678
3918.84292	0.30608
3916.91436	0.30729
3914.98579	0.30778
3913.05723	0.30689
3911.12866	0.30605
3909.20010	0.30468
3907.27153	0.30219
3905.34297	0.30225
3903.41440	0.30701
3901.48584	0.31001
3899.55728	0.30949
3897.62871	0.30777
3895.70015	0.30512
3893.77158	0.30368
3891.84302	0.30628
3889.91445	0.30778
3887.98589	0.30594
3886.05733	0.30685
3884.12876	0.30904
3882.20020	0.30821
3880.27163	0.30796
3878.34307	0.30611
3876.41450	0.30307
3874.48594	0.30347
3872.55737	0.30618
3870.62881	0.30972
3868.70025	0.31184
3866.77168	0.30909
3864.84312	0.30675
3862.91455	0.30763
3860.98599	0.30673
3859.05742	0.30329
3857.12886	0.29962
3855.20029	0.30031
3853.27173	0.31110
3851.34317	0.31399
3849.41460	0.30765
3847.48604	0.30125
3845.55747	0.29734
3843.62891	0.29647
3841.70034	0.29734
3839.77178	0.30037
3837.84321	0.30520
3835.91465	0.30559
3833.98609	0.30328
3832.05752	0.30202
3830.12896	0.30071
3828.20039	0.29947
3826.27183	0.29875
3824.34326	0.29602
3822.41470	0.29490
3820.48613	0.29985
3818.55757	0.30161
3816.62901	0.30236
3814.70044	0.30372
3812.77188	0.30091
3810.84331	0.29633
3808.91475	0.29440
3806.98618	0.29726
3805.05762	0.29821
3803.12905	0.29739
3801.20049	0.30147
3799.27193	0.30300
3797.34336	0.30148
3795.41480	0.30127
3793.48623	0.30002
3791.55767	0.29786
3789.62910	0.29597
3787.70054	0.29415
3785.77197	0.29382
3783.84341	0.29434
3781.91485	0.29329
3779.98628	0.29322
3778.05772	0.29479
3776.12915	0.29429
3774.20059	0.29215
3772.27202	0.29100
3770.34346	0.29252
3768.41489	0.29349
3766.48633	0.29241
3764.55777	0.29163
3762.62920	0.29013
3760.70064	0.28902
3758.77207	0.29028
3756.84351	0.29005
3754.91494	0.28716
3752.98638	0.28609
3751.05781	0.29319
3749.12925	0.29835
3747.20069	0.29501
3745.27212	0.29411
3743.34356	0.29599
3741.41499	0.29331
3739.48643	0.28900
3737.55786	0.28692
3735.62930	0.28906
3733.70074	0.29315
3731.77217	0.29407
3729.84361	0.29178
3727.91504	0.28969
3725.98648	0.29081
3724.05791	0.29340
3722.12935	0.29419
3720.20078	0.29348
3718.27222	0.29171
3716.34366	0.28842
3714.41509	0.28487
3712.48653	0.28618
3710.55796	0.29257
3708.62940	0.29316
3706.70083	0.28996
3704.77227	0.28701
3702.84370	0.28679
3700.91514	0.28941
3698.98658	0.28999
3697.05801	0.28867
3695.12945	0.28729
3693.20088	0.28546
3691.27232	0.28590
3689.34375	0.29293
3687.41519	0.29763
3685.48662	0.29699
3683.55806	0.29599
3681.62950	0.29589
3679.70093	0.29595
3677.77237	0.29726
3675.84380	0.30477
3673.91524	0.31004
3671.98667	0.30984
3670.05811	0.31584
3668.12954	0.32195
3666.20098	0.32154
3664.27242	0.32129
3662.34385	0.32309
3660.41529	0.32493
3658.48672	0.32739
3656.55816	0.33391
3654.62959	0.33910
3652.70103	0.33942
3650.77246	0.34428
3648.84390	0.36119
3646.91534	0.37012
3644.98677	0.37015
3643.05821	0.37067
3641.12964	0.37425
3639.20108	0.37925
3637.27251	0.38355
3635.34395	0.38732
3633.41538	0.39004
3631.48682	0.39187
3629.55826	0.40244
3627.62969	0.41973
3625.70113	0.42497
3623.77256	0.42538
3621.84400	0.42709
3619.91543	0.43369
3617.98687	0.44224
3616.05830	0.44614
3614.12974	0.45125
3612.20118	0.45930
3610.27261	0.46555
3608.34405	0.47193
3606.41548	0.47832
3604.48692	0.48187
3602.55835	0.48627
3600.62979	0.49437
3598.70123	0.50266
3596.77266	0.50880
3594.84410	0.51490
3592.91553	0.51992
3590.98697	0.52235
3589.05840	0.52780
3587.12984	0.54124
3585.20127	0.55233
3583.27271	0.55768
3581.34415	0.56317
3579.41558	0.57037
3577.48702	0.57769
3575.55845	0.58461
3573.62989	0.59023
3571.70132	0.59360
3569.77276	0.59679
3567.84419	0.60611
3565.91563	0.62185
3563.98707	0.63156
3562.05850	0.63725
3560.12994	0.64454
3558.20137	0.65266
3556.27281	0.65963
3554.34424	0.66685
3552.41568	0.67536
3550.48711	0.68224
3548.55855	0.68834
3546.62999	0.69741
3544.70142	0.70743
3542.77286	0.71489
3540.84429	0.72169
3538.91573	0.72999
3536.98716	0.73984
3535.05860	0.74893
3533.13003	0.75572
3531.20147	0.76206
3529.27291	0.76873
3527.34434	0.77577
3525.41578	0.78609
3523.48721	0.79933
3521.55865	0.80976
3519.63008	0.81632
3517.70152	0.82413
3515.77295	0.83491
3513.84439	0.84434
3511.91583	0.85024
3509.98726	0.85758
3508.05870	0.86873
3506.13013	0.87977
3504.20157	0.89130
3502.27300	0.90360
3500.34444	0.91250
3498.41587	0.91837
3496.48731	0.92557
3494.55875	0.93598
3492.63018	0.94635
3490.70162	0.95507
3488.77305	0.96356
3486.84449	0.97095
3484.91592	0.97629
3482.98736	0.98334
3481.05879	0.99211
3479.13023	0.99654
3477.20167	0.99863
3475.27310	1.00305
3473.34454	1.00921
3471.41597	1.01496
3469.48741	1.01918
3467.55884	1.02351
3465.63028	1.02900
3463.70171	1.03303
3461.77315	1.03527
3459.84459	1.03918
3457.91602	1.04613
3455.98746	1.05498
3454.05889	1.06120
3452.13033	1.06161
3450.20176	1.06256
3448.27320	1.07052
3446.34464	1.08180
3444.41607	1.08739
3442.48751	1.08691
3440.55894	1.08616
3438.63038	1.08746
3436.70181	1.09116
3434.77325	1.09641
3432.84468	1.09962
3430.91612	1.09912
3428.98756	1.09898
3427.05899	1.10267
3425.13043	1.10734
3423.20186	1.10996
3421.27330	1.11108
3419.34473	1.11184
3417.41617	1.11338
3415.48760	1.11590
3413.55904	1.11722
3411.63048	1.11762
3409.70191	1.12065
3407.77335	1.12479
3405.84478	1.12764
3403.91622	1.13103
3401.98765	1.13232
3400.05909	1.12803
3398.13052	1.12507
3396.20196	1.13063
3394.27340	1.13952
3392.34483	1.14175
3390.41627	1.13811
3388.48770	1.13762
3386.55914	1.14093
3384.63057	1.14451
3382.70201	1.14985
3380.77344	1.15362
3378.84488	1.15162
3376.91632	1.14920
3374.98775	1.15263
3373.05919	1.16008
3371.13062	1.16363
3369.20206	1.16179
3367.27349	1.16133
3365.34493	1.16587
3363.41636	1.17428
3361.48780	1.18269
3359.55924	1.18700
3357.63067	1.18670
3355.70211	1.18487
3353.77354	1.18587
3351.84498	1.18908
3349.91641	1.19184
3347.98785	1.19696
3346.05928	1.20407
3344.13072	1.20677
3342.20216	1.20636
3340.27359	1.20979
3338.34503	1.21792
3336.41646	1.22669
3334.48790	1.23081
3332.55933	1.23245
3330.63077	1.23864
3328.70220	1.24701
3326.77364	1.25123
3324.84508	1.24813
3322.91651	1.24096
3320.98795	1.24093
3319.05938	1.25110
3317.13082	1.26240
3315.20225	1.26810
3313.27369	1.26927
3311.34513	1.26901
3309.41656	1.26998
3307.48800	1.27531
3305.55943	1.28305
3303.63087	1.28708
3301.70230	1.28574
3299.77374	1.28195
3297.84517	1.28109
3295.91661	1.28693
3293.98805	1.29400
3292.05948	1.29573
3290.13092	1.29660
3288.20235	1.30016
3286.27379	1.29943
3284.34522	1.29191
3282.41666	1.28517
3280.48809	1.28170
3278.55953	1.27632
3276.63097	1.26944
3274.70240	1.26810
3272.77384	1.27331
3270.84527	1.27682
3268.91671	1.27144
3266.98814	1.25932
3265.05958	1.24715
3263.13101	1.23902
3261.20245	1.23701
3259.27389	1.23874
3257.34532	1.23644
3255.41676	1.22646
3253.48819	1.21366
3251.55963	1.20450
3249.63106	1.19783
3247.70250	1.18836
3245.77393	1.17865
3243.84537	1.17316
3241.91681	1.16747
3239.98824	1.15865
3238.05968	1.14977
3236.13111	1.14105
3234.20255	1.13208
3232.27398	1.12624
3230.34542	1.12500
3228.41685	1.12439
3226.48829	1.12079
3224.55973	1.11546
3222.63116	1.10957
3220.70260	1.10301
3218.77403	1.09740
3216.84547	1.09368
3214.91690	1.09033
3212.98834	1.08482
3211.05977	1.07699
3209.13121	1.06911
3207.20265	1.06312
3205.27408	1.05997
3203.34552	1.05804
3201.41695	1.05401
3199.48839	1.04758
3197.55982	1.04057
3195.63126	1.03385
3193.70269	1.02817
3191.77413	1.02446
3189.84557	1.02190
3187.91700	1.01814
3185.98844	1.01358
3184.05987	1.01054
3182.13131	1.00732
3180.20274	1.00092
3178.27418	0.99258
3176.34562	0.98584
3174.41705	0.98132
3172.48849	0.97651
3170.55992	0.97112
3168.63136	0.96668
3166.70279	0.96230
3164.77423	0.95639
3162.84566	0.95018
3160.91710	0.94543
3158.98854	0.94038
3157.05997	0.93396
3155.13141	0.92868
3153.20284	0.92536
3151.27428	0.92294
3149.34571	0.92045
3147.41715	0.91632
3145.48858	0.91122
3143.56002	0.90786
3141.63146	0.90649
3139.70289	0.90558
3137.77433	0.90414
3135.84576	0.90177
3133.91720	0.89857
3131.98863	0.89594
3130.06007	0.89556
3128.13150	0.89550
3126.20294	0.89366
3124.27438	0.89244
3122.34581	0.89305
3120.41725	0.89444
3118.48868	0.89615
3116.56012	0.89679
3114.63155	0.89551
3112.70299	0.89382
3110.77442	0.89361
3108.84586	0.89406
3106.91730	0.89381
3104.98873	0.89371
3103.06017	0.89295
3101.13160	0.88991
3099.20304	0.88688
3097.27447	0.88602
3095.34591	0.88550
3093.41734	0.88457
3091.48878	0.88449
3089.56022	0.88389
3087.63165	0.88093
3085.70309	0.87701
3083.77452	0.87431
3081.84596	0.87282
3079.91739	0.87075
3077.98883	0.86751
3076.06026	0.86451
3074.13170	0.86241
3072.20314	0.86025
3070.27457	0.85789
3068.34601	0.85561
3066.41744	0.85195
3064.48888	0.84684
3062.56031	0.84319
3060.63175	0.84063
3058.70318	0.83666
3056.77462	0.83278
3054.84606	0.83035
3052.91749	0.82787
3050.98893	0.82438
3049.06036	0.82035
3047.13180	0.81614
3045.20323	0.81176
3043.27467	0.80746
3041.34610	0.80323
3039.41754	0.79972
3037.48898	0.79740
3035.56041	0.79460
3033.63185	0.79039
3031.70328	0.78549
3029.77472	0.78087
3027.84615	0.77721
3025.91759	0.77448
3023.98903	0.77176
3022.06046	0.76842
3020.13190	0.76534
3018.20333	0.76313
3016.27477	0.76146
3014.34620	0.76005
3012.41764	0.75794
3010.48907	0.75441
3008.56051	0.75059
3006.63195	0.74772
3004.70338	0.74540
3002.77482	0.74342
3000.84625	0.74275
2998.91769	0.74377
2996.98912	0.74559
2995.06056	0.74711
2993.13199	0.74890
2991.20343	0.75244
2989.27487	0.75775
2987.34630	0.76347
2985.41774	0.76924
2983.48917	0.77642
2981.56061	0.78566
2979.63204	0.79566
2977.70348	0.80487
2975.77491	0.81395
2973.84635	0.82453
2971.91779	0.83534
2969.98922	0.84361
2968.06066	0.84991
2966.13209	0.85748
2964.20353	0.86624
2962.27496	0.87218
2960.34640	0.87342
2958.41783	0.87134
2956.48927	0.86653
2954.56071	0.85958
2952.63214	0.85294
2950.70358	0.84815
2948.77501	0.84491
2946.84645	0.84370
2944.91788	0.84656
2942.98932	0.85459
2941.06075	0.86610
2939.13219	0.87812
2937.20363	0.88891
2935.27506	0.89837
2933.34650	0.90659
2931.41793	0.91307
2929.48937	0.91843
2927.56080	0.92396
2925.63224	0.92941
2923.70367	0.93405
2921.77511	0.93649
2919.84655	0.93466
2917.91798	0.92689
2915.98942	0.91074
2914.06085	0.88697
2912.13229	0.86218
2910.20372	0.84220
2908.27516	0.82793
2906.34659	0.81684
2904.41803	0.80691
2902.48947	0.79820
2900.56090	0.79108
2898.63234	0.78540
2896.70377	0.78060
2894.77521	0.77616
2892.84664	0.77160
2890.91808	0.76657
2888.98952	0.76254
2887.06095	0.76079
2885.13239	0.75992
2883.20382	0.75885
2881.27526	0.75856
2879.34669	0.75951
2877.41813	0.76058
2875.48956	0.76031
2873.56100	0.75814
2871.63244	0.75418
2869.70387	0.74788
2867.77531	0.73941
2865.84674	0.73170
2863.91818	0.72718
2861.98961	0.72575
2860.06105	0.72720
2858.13248	0.73174
2856.20392	0.73856
2854.27536	0.74616
2852.34679	0.75240
2850.41823	0.75216
2848.48966	0.73854
2846.56110	0.71243
2844.63253	0.68456
2842.70397	0.66315
2840.77540	0.64826
2838.84684	0.63742
2836.91828	0.62958
2834.98971	0.62381
2833.06115	0.61883
2831.13258	0.61436
2829.20402	0.61054
2827.27545	0.60713
2825.34689	0.60387
2823.41832	0.60081
2821.48976	0.59841
2819.56120	0.59630
2817.63263	0.59363
2815.70407	0.59045
2813.77550	0.58729
2811.84694	0.58445
2809.91837	0.58155
2807.98981	0.57821
2806.06124	0.57487
2804.13268	0.57167
2802.20412	0.56811
2800.27555	0.56416
2798.34699	0.56046
2796.41842	0.55763
2794.48986	0.55508
2792.56129	0.55188
2790.63273	0.54869
2788.70416	0.54644
2786.77560	0.54443
2784.84704	0.54195
2782.91847	0.53951
2780.98991	0.53749
2779.06134	0.53547
2777.13278	0.53314
2775.20421	0.53084
2773.27565	0.52914
2771.34708	0.52811
2769.41852	0.52729
2767.48996	0.52619
2765.56139	0.52483
2763.63283	0.52332
2761.70426	0.52141
2759.77570	0.51933
2757.84713	0.51782
2755.91857	0.51727
2753.99001	0.51726
2752.06144	0.51661
2750.13288	0.51492
2748.20431	0.51308
2746.27575	0.51152
2744.34718	0.51009
2742.41862	0.50879
2740.49005	0.50713
2738.56149	0.50478
2736.63293	0.50273
2734.70436	0.50148
2732.77580	0.50009
2730.84723	0.49805
2728.91867	0.49574
2726.99010	0.49326
2725.06154	0.49057
2723.13297	0.48777
2721.20441	0.48491
2719.27585	0.48227
2717.34728	0.48040
2715.41872	0.47900
2713.49015	0.47706
2711.56159	0.47450
2709.63302	0.47218
2707.70446	0.47024
2705.77589	0.46831
2703.84733	0.46650
2701.91877	0.46480
2699.99020	0.46278
2698.06164	0.46038
2696.13307	0.45815
2694.20451	0.45649
2692.27594	0.45537
2690.34738	0.45414
2688.41881	0.45233
2686.49025	0.45060
2684.56169	0.44922
2682.63312	0.44760
2680.70456	0.44588
2678.77599	0.44457
2676.84743	0.44313
2674.91886	0.44108
2672.99030	0.43899
2671.06173	0.43721
2669.13317	0.43561
2667.20461	0.43416
2665.27604	0.43264
2663.34748	0.43098
2661.41891	0.42968
2659.49035	0.42884
2657.56178	0.42811
2655.63322	0.42724
2653.70465	0.42604
2651.77609	0.42438
2649.84753	0.42262
2647.91896	0.42117
2645.99040	0.41981
2644.06183	0.41859
2642.13327	0.41766
2640.20470	0.41666
2638.27614	0.41577
2636.34757	0.41520
2634.41901	0.41421
2632.49045	0.41263
2630.56188	0.41114
2628.63332	0.40994
2626.70475	0.40879
2624.77619	0.40768
2622.84762	0.40659
2620.91906	0.40541
2618.99049	0.40428
2617.06193	0.40334
2615.13337	0.40237
2613.20480	0.40106
2611.27624	0.39952
2609.34767	0.39802
2607.41911	0.39663
2605.49054	0.39554
2603.56198	0.39470
2601.63342	0.39379
2599.70485	0.39294
2597.77629	0.39227
2595.84772	0.39132
2593.91916	0.39005
2591.99059	0.38899
2590.06203	0.38835
2588.13346	0.38790
2586.20490	0.38727
2584.27634	0.38641
2582.34777	0.38572
2580.41921	0.38528
2578.49064	0.38482
2576.56208	0.38427
2574.63351	0.38358
2572.70495	0.38276
2570.77638	0.38197
2568.84782	0.38126
2566.91926	0.38048
2564.99069	0.37975
2563.06213	0.37898
2561.13356	0.37769
2559.20500	0.37595
2557.27643	0.37438
2555.34787	0.37297
2553.41930	0.37153
2551.49074	0.37031
2549.56218	0.36933
2547.63361	0.36815
2545.70505	0.36666
2543.77648	0.36508
2541.84792	0.36377
2539.91935	0.36258
2537.99079	0.36113
2536.06222	0.35963
2534.13366	0.35826
2532.20510	0.35708
2530.27653	0.35638
2528.34797	0.35585
2526.41940	0.35482
2524.49084	0.35343
2522.56227	0.35208
2520.63371	0.35083
2518.70514	0.34963
2516.77658	0.34844
2514.84802	0.34723
2512.91945	0.34598
2510.99089	0.34476
2509.06232	0.34359
2507.13376	0.34236
2505.20519	0.34121
2503.27663	0.34016
2501.34806	0.33907
2499.41950	0.33780
2497.49094	0.33613
2495.56237	0.33417
2493.63381	0.33231
2491.70524	0.33079
2489.77668	0.32957
2487.84811	0.32833
2485.91955	0.32686
2483.99098	0.32516
2482.06242	0.32329
2480.13386	0.32134
2478.20529	0.31944
2476.27673	0.31769
2474.34816	0.31612
2472.41960	0.31445
2470.49103	0.31246
2468.56247	0.31057
2466.63391	0.30908
2464.70534	0.30764
2462.77678	0.30613
2460.84821	0.30471
2458.91965	0.30341
2456.99108	0.30214
2455.06252	0.30078
2453.13395	0.29931
2451.20539	0.29790
2449.27683	0.29670
2447.34826	0.29570
2445.41970	0.29465
2443.49113	0.29348
2441.56257	0.29244
2439.63400	0.29151
2437.70544	0.29039
2435.77687	0.28910
2433.84831	0.28791
2431.91975	0.28698
2429.99118	0.28628
2428.06262	0.28549
2426.13405	0.28432
2424.20549	0.28298
2422.27692	0.28166
2420.34836	0.28041
2418.41979	0.27930
2416.49123	0.27826
2414.56267	0.27719
2412.63410	0.27602
2410.70554	0.27481
2408.77697	0.27358
2406.84841	0.27204
2404.91984	0.27041
2402.99128	0.26934
2401.06271	0.26860
2399.13415	0.26757
2397.20559	0.26619
2395.27702	0.26482
2393.34846	0.26390
2391.41989	0.26344
2389.49133	0.26290
2387.56276	0.26191
2385.63420	0.26080
2383.70563	0.26001
2381.77707	0.25944
2379.84851	0.25884
2377.91994	0.25823
2375.99138	0.25794
2374.06281	0.25836
2372.13425	0.25917
2370.20568	0.26008
2368.27712	0.26166
2366.34855	0.26337
2364.41999	0.26324
2362.49143	0.26149
2360.56286	0.26075
2358.63430	0.26121
2356.70573	0.26204
2354.77717	0.26330
2352.84860	0.26379
2350.92004	0.26250
2348.99147	0.25999
2347.06291	0.25763
2345.13435	0.25760
2343.20578	0.26020
2341.27722	0.26124
2339.34865	0.25962
2337.42009	0.25776
2335.49152	0.25647
2333.56296	0.25559
2331.63440	0.25522
2329.70583	0.25516
2327.77727	0.25488
2325.84870	0.25379
2323.92014	0.25256
2321.99157	0.25222
2320.06301	0.25211
2318.13444	0.25140
2316.20588	0.25055
2314.27732	0.24999
2312.34875	0.24967
2310.42019	0.24938
2308.49162	0.24904
2306.56306	0.24852
2304.63449	0.24792
2302.70593	0.24769
2300.77736	0.24767
2298.84880	0.24725
2296.92024	0.24677
2294.99167	0.24673
2293.06311	0.24671
2291.13454	0.24655
2289.20598	0.24661
2287.27741	0.24670
2285.34885	0.24658
2283.42028	0.24655
2281.49172	0.24669
2279.56316	0.24665
2277.63459	0.24632
2275.70603	0.24608
2273.77746	0.24612
2271.84890	0.24615
2269.92033	0.24602
2267.99177	0.24569
2266.06320	0.24512
2264.13464	0.24442
2262.20608	0.24365
2260.27751	0.24281
2258.34895	0.24184
2256.42038	0.24082
2254.49182	0.24006
2252.56325	0.23950
2250.63469	0.23880
2248.70612	0.23788
2246.77756	0.23694
2244.84900	0.23615
2242.92043	0.23558
2240.99187	0.23527
2239.06330	0.23502
2237.13474	0.23467
2235.20617	0.23422
2233.27761	0.23373
2231.34904	0.23327
2229.42048	0.23285
2227.49192	0.23242
2225.56335	0.23209
2223.63479	0.23198
2221.70622	0.23190
2219.77766	0.23171
2217.84909	0.23145
2215.92053	0.23109
2213.99196	0.23064
2212.06340	0.23023
2210.13484	0.22997
2208.20627	0.22969
2206.27771	0.22922
2204.34914	0.22890
2202.42058	0.22883
2200.49201	0.22868
2198.56345	0.22839
2196.63488	0.22817
2194.70632	0.22802
2192.77776	0.22787
2190.84919	0.22772
2188.92063	0.22765
2186.99206	0.22774
2185.06350	0.22789
2183.13493	0.22791
2181.20637	0.22794
2179.27781	0.22808
2177.34924	0.22824
2175.42068	0.22847
2173.49211	0.22887
2171.56355	0.22936
2169.63498	0.22987
2167.70642	0.23035
2165.77785	0.23070
2163.84929	0.23093
2161.92073	0.23120
2159.99216	0.23166
2158.06360	0.23222
2156.13503	0.23264
2154.20647	0.23283
2152.27790	0.23296
2150.34934	0.23313
2148.42077	0.23328
2146.49221	0.23346
2144.56365	0.23368
2142.63508	0.23386
2140.70652	0.23412
2138.77795	0.23452
2136.84939	0.23489
2134.92082	0.23516
2132.99226	0.23535
2131.06369	0.23548
2129.13513	0.23560
2127.20657	0.23577
2125.27800	0.23596
2123.34944	0.23614
2121.42087	0.23617
2119.49231	0.23595
2117.56374	0.23575
2115.63518	0.23585
2113.70661	0.23608
2111.77805	0.23616
2109.84949	0.23604
2107.92092	0.23595
2105.99236	0.23601
2104.06379	0.23593
2102.13523	0.23560
2100.20666	0.23533
2098.27810	0.23531
2096.34953	0.23531
2094.42097	0.23524
2092.49241	0.23513
2090.56384	0.23504
2088.63528	0.23484
2086.70671	0.23456
2084.77815	0.23454
2082.84958	0.23473
2080.92102	0.23477
2078.99245	0.23467
2077.06389	0.23462
2075.13533	0.23463
2073.20676	0.23464
2071.27820	0.23462
2069.34963	0.23466
2067.42107	0.23487
2065.49250	0.23516
2063.56394	0.23523
2061.63537	0.23501
2059.70681	0.23478
2057.77825	0.23465
2055.84968	0.23446
2053.92112	0.23405
2051.99255	0.23335
2050.06399	0.23256
2048.13542	0.23173
2046.20686	0.23071
2044.27830	0.22962
2042.34973	0.22876
2040.42117	0.22812
2038.49260	0.22736
2036.56404	0.22636
2034.63547	0.22519
2032.70691	0.22401
2030.77834	0.22310
2028.84978	0.22245
2026.92122	0.22169
2024.99265	0.22071
2023.06409	0.21979
2021.13552	0.21892
2019.20696	0.21806
2017.27839	0.21746
2015.34983	0.21705
2013.42126	0.21653
2011.49270	0.21591
2009.56414	0.21551
2007.63557	0.21537
2005.70701	0.21515
2003.77844	0.21469
2001.84988	0.21425
1999.92131	0.21400
1997.99275	0.21370
1996.06418	0.21312
1994.13562	0.21263
1992.20706	0.21246
1990.27849	0.21221
1988.34993	0.21167
1986.42136	0.21108
1984.49280	0.21058
1982.56423	0.21010
1980.63567	0.20930
1978.70710	0.20809
1976.77854	0.20683
1974.84998	0.20573
1972.92141	0.20479
1970.99285	0.20385
1969.06428	0.20304
1967.13572	0.20262
1965.20715	0.20212
1963.27859	0.20129
1961.35002	0.20051
1959.42146	0.19979
1957.49290	0.19896
1955.56433	0.19824
1953.63577	0.19768
1951.70720	0.19707
1949.77864	0.19632
1947.85007	0.19549
1945.92151	0.19476
1943.99294	0.19448
1942.06438	0.19453
1940.13582	0.19405
1938.20725	0.19323
1936.27869	0.19264
1934.35012	0.19220
1932.42156	0.19179
1930.49299	0.19146
1928.56443	0.19123
1926.63586	0.19093
1924.70730	0.19071
1922.77874	0.19077
1920.85017	0.19049
1918.92161	0.19012
1916.99304	0.19015
1915.06448	0.18967
1913.13591	0.18880
1911.20735	0.18843
1909.27878	0.18864
1907.35022	0.18859
1905.42166	0.18794
1903.49309	0.18727
1901.56453	0.18690
1899.63596	0.18665
1897.70740	0.18638
1895.77883	0.18650
1893.85027	0.18673
1891.92171	0.18650
1889.99314	0.18669
1888.06458	0.18720
1886.13601	0.18704
1884.20745	0.18676
1882.27888	0.18668
1880.35032	0.18654
1878.42175	0.18636
1876.49319	0.18607
1874.56463	0.18541
1872.63606	0.18429
1870.70750	0.18363
1868.77893	0.18457
1866.85037	0.18536
1864.92180	0.18453
1862.99324	0.18345
1861.06467	0.18274
1859.13611	0.18216
1857.20755	0.18144
1855.27898	0.18057
1853.35042	0.17973
1851.42185	0.17902
1849.49329	0.17831
1847.56472	0.17741
1845.63616	0.17712
1843.70759	0.17797
1841.77903	0.17768
1839.85047	0.17620
1837.92190	0.17527
1835.99334	0.17498
1834.06477	0.17419
1832.13621	0.17335
1830.20764	0.17405
1828.27908	0.17518
1826.35051	0.17536
1824.42195	0.17570
1822.49339	0.17566
1820.56482	0.17500
1818.63626	0.17470
1816.70769	0.17475
1814.77913	0.17458
1812.85056	0.17444
1810.92200	0.17503
1808.99343	0.17573
1807.06487	0.17550
1805.13631	0.17462
1803.20774	0.17395
1801.27918	0.17439
1799.35061	0.17533
1797.42205	0.17538
1795.49348	0.17471
1793.56492	0.17487
1791.63635	0.17671
1789.70779	0.17712
1787.77923	0.17595
1785.85066	0.17513
1783.92210	0.17476
1781.99353	0.17472
1780.06497	0.17539
1778.13640	0.17569
1776.20784	0.17495
1774.27927	0.17488
1772.35071	0.17752
1770.42215	0.18034
1768.49358	0.18140
1766.56502	0.18196
1764.63645	0.18237
1762.70789	0.18435
1760.77932	0.18831
1758.85076	0.19181
1756.92220	0.19628
1754.99363	0.20115
1753.06507	0.20543
1751.13650	0.21304
1749.20794	0.22530
1747.27937	0.23601
1745.35081	0.24368
1743.42224	0.25029
1741.49368	0.25695
1739.56512	0.26346
1737.63655	0.26703
1735.70799	0.26888
1733.77942	0.27432
1731.85086	0.27962
1729.92229	0.28224
1727.99373	0.28486
1726.06516	0.28785
1724.13660	0.29260
1722.20804	0.29790
1720.27947	0.30232
1718.35091	0.31114
1716.42234	0.32966
1714.49378	0.34517
1712.56521	0.35643
1710.63665	0.36933
1708.70808	0.38577
1706.77952	0.41134
1704.85096	0.44627
1702.92239	0.47781
1700.99383	0.52141
1699.06526	0.59288
1697.13670	0.66190
1695.20813	0.72953
1693.27957	0.77871
1691.35100	0.81571
1689.42244	0.86052
1687.49388	0.90290
1685.56531	0.94340
1683.63675	1.00103
1681.70818	1.04104
1679.77962	1.06123
1677.85105	1.07712
1675.92249	1.09382
1673.99392	1.11165
1672.06536	1.12607
1670.13680	1.13863
1668.20823	1.14911
1666.27967	1.15159
1664.35110	1.15170
1662.42254	1.15375
1660.49397	1.15542
1658.56541	1.15519
1656.63684	1.15298
1654.70828	1.15053
1652.77972	1.14663
1650.85115	1.14320
1648.92259	1.14151
1646.99402	1.13943
1645.06546	1.13626
1643.13689	1.13150
1641.20833	1.12701
1639.27976	1.12295
1637.35120	1.11902
1635.42264	1.11425
1633.49407	1.10810
1631.56551	1.10179
1629.63694	1.09438
1627.70838	1.08654
1625.77981	1.07822
1623.85125	1.06673
1621.92269	1.05242
1619.99412	1.04041
1618.06556	1.02755
1616.13699	1.00697
1614.20843	0.98701
1612.27986	0.97044
1610.35130	0.95322
1608.42273	0.93515
1606.49417	0.91964
1604.56561	0.90841
1602.63704	0.89977
1600.70848	0.89286
1598.77991	0.88784
1596.85135	0.88514
1594.92278	0.88454
1592.99422	0.88546
1591.06565	0.88821
1589.13709	0.89302
1587.20853	0.89973
1585.27996	0.90772
1583.35140	0.91667
1581.42283	0.92618
1579.49427	0.93589
1577.56570	0.94904
1575.63714	0.96657
1573.70857	0.97729
1571.78001	0.98497
1569.85145	0.99825
1567.92288	1.01190
1565.99432	1.02099
1564.06575	1.03029
1562.13719	1.03847
1560.20862	1.04944
1558.28006	1.07095
1556.35149	1.07802
1554.42293	1.07891
1552.49437	1.08008
1550.56580	1.08001
1548.63724	1.07760
1546.70867	1.07468
1544.78011	1.07184
1542.85154	1.06647
1540.92298	1.05666
1538.99441	1.05032
1537.06585	1.04853
1535.13729	1.04452
1533.20872	1.03679
1531.28016	1.02910
1529.35159	1.02407
1527.42303	1.02059
1525.49446	1.01766
1523.56590	1.01508
1521.63733	1.01090
1519.70877	1.00452
1517.78021	0.99643
1515.85164	0.98525
1513.92308	0.97150
1511.99451	0.95609
1510.06595	0.94074
1508.13738	0.92039
1506.20882	0.88739
1504.28025	0.86678
1502.35169	0.85197
1500.42313	0.83521
1498.49456	0.81427
1496.56600	0.78939
1494.63743	0.76858
1492.70887	0.75292
1490.78030	0.73514
1488.85174	0.71302
1486.92317	0.69668
1484.99461	0.68668
1483.06605	0.67943
1481.13748	0.67454
1479.20892	0.67343
1477.28035	0.67699
1475.35179	0.68613
1473.42322	0.70556
1471.49466	0.72951
1469.56610	0.74253
1467.63753	0.75042
1465.70897	0.76095
1463.78040	0.77316
1461.85184	0.78022
1459.92327	0.78436
1457.99471	0.79528
1456.06614	0.81256
1454.13758	0.81762
1452.20902	0.81701
1450.28045	0.81555
1448.35189	0.81383
1446.42332	0.81075
1444.49476	0.80601
1442.56619	0.80092
1440.63763	0.79596
1438.70906	0.78982
1436.78050	0.78045
1434.85194	0.76926
1432.92337	0.75930
1430.99481	0.75015
1429.06624	0.74223
1427.13768	0.73639
1425.20911	0.73253
1423.28055	0.73060
1421.35198	0.72992
1419.42342	0.73180
1417.49486	0.73549
1415.56629	0.73604
1413.63773	0.73514
1411.70916	0.73511
1409.78060	0.73607
1407.85203	0.73760
1405.92347	0.74088
1403.99490	0.74583
1402.06634	0.74972
1400.13778	0.75299
1398.20921	0.75644
1396.28065	0.75926
1394.35208	0.76197
1392.42352	0.76438
1390.49495	0.76695
1388.56639	0.77269
1386.63782	0.78311
1384.70926	0.79347
1382.78070	0.80132
1380.85213	0.80673
1378.92357	0.80841
1376.99500	0.80582
1375.06644	0.79862
1373.13787	0.78696
1371.20931	0.77349
1369.28074	0.75826
1367.35218	0.74144
1365.42362	0.72536
1363.49505	0.71000
1361.56649	0.69702
1359.63792	0.68834
1357.70936	0.68198
1355.78079	0.67714
1353.85223	0.67392
1351.92366	0.67167
1349.99510	0.66983
1348.06654	0.66833
1346.13797	0.66732
1344.20941	0.66695
1342.28084	0.66736
1340.35228	0.66926
1338.42371	0.67278
1336.49515	0.67688
1334.56659	0.68203
1332.63802	0.68918
1330.70946	0.69784
1328.78089	0.70615
1326.85233	0.71271
1324.92376	0.71762
1322.99520	0.72180
1321.06663	0.72635
1319.13807	0.73179
1317.20951	0.73707
1315.28094	0.74109
1313.35238	0.74421
1311.42381	0.74679
1309.49525	0.74854
1307.56668	0.74905
1305.63812	0.74851
1303.70955	0.74778
1301.78099	0.74702
1299.85243	0.74509
1297.92386	0.74131
1295.99530	0.73669
1294.06673	0.73258
1292.13817	0.72945
1290.20960	0.72752
1288.28104	0.72682
1286.35247	0.72670
1284.42391	0.72658
1282.49535	0.72663
1280.56678	0.72722
1278.63822	0.72827
1276.70965	0.72974
1274.78109	0.73194
1272.85252	0.73547
1270.92396	0.74050
1268.99539	0.74610
1267.06683	0.75120
1265.13827	0.75517
1263.20970	0.75762
1261.28114	0.75877
1259.35257	0.75954
1257.42401	0.76052
1255.49544	0.76133
1253.56688	0.76158
1251.63831	0.76194
1249.70975	0.76302
1247.78119	0.76434
1245.85262	0.76486
1243.92406	0.76414
1241.99549	0.76278
1240.06693	0.76106
1238.13836	0.75848
1236.20980	0.75483
1234.28123	0.75026
1232.35267	0.74486
1230.42411	0.73862
1228.49554	0.73149
1226.56698	0.72341
1224.63841	0.71470
1222.70985	0.70603
1220.78128	0.69769
1218.85272	0.68986
1216.92415	0.68308
1214.99559	0.67804
1213.06703	0.67555
1211.13846	0.67567
1209.20990	0.67686
1207.28133	0.67678
1205.35277	0.67357
1203.42420	0.66703
1201.49564	0.65837
1199.56708	0.64854
1197.63851	0.63821
1195.70995	0.62842
1193.78138	0.61978
1191.85282	0.61222
1189.92425	0.60559
1187.99569	0.59998
1186.06712	0.59576
1184.13856	0.59302
1182.21000	0.59229
1180.28143	0.59486
1178.35287	0.60078
1176.42430	0.60886
1174.49574	0.61856
1172.56717	0.62941
1170.63861	0.64169
1168.71004	0.65667
1166.78148	0.67406
1164.85292	0.69199
1162.92435	0.70928
1160.99579	0.72442
1159.06722	0.73443
1157.13866	0.73790
1155.21009	0.73615
1153.28153	0.73057
1151.35296	0.72216
1149.42440	0.71246
1147.49584	0.70359
1145.56727	0.69733
1143.63871	0.69446
1141.71014	0.69525
1139.78158	0.69905
1137.85301	0.70492
1135.92445	0.71278
1133.99588	0.72244
1132.06732	0.73347
1130.13876	0.74569
1128.21019	0.75861
1126.28163	0.77147
1124.35306	0.78308
1122.42450	0.79303
1120.49593	0.80263
1118.56737	0.81071
1116.63880	0.81428
1114.71024	0.81364
1112.78168	0.81072
1110.85311	0.80675
1108.92455	0.80298
1106.99598	0.79973
1105.06742	0.79693
1103.13885	0.79630
1101.21029	0.79925
1099.28172	0.80476
1097.35316	0.81274
1095.42460	0.82440
1093.49603	0.83859
1091.56747	0.85363
1089.63890	0.87042
1087.71034	0.89025
1085.78177	0.91057
1083.85321	0.92663
1081.92464	0.93774
1079.99608	0.94520
1078.06752	0.94814
1076.13895	0.94675
1074.21039	0.94228
1072.28182	0.93485
1070.35326	0.92496
1068.42469	0.91421
1066.49613	0.90366
1064.56756	0.89282
1062.63900	0.88121
1060.71044	0.86892
1058.78187	0.85640
1056.85331	0.84492
1054.92474	0.83463
1052.99618	0.82473
1051.06761	0.81577
1049.13905	0.80884
1047.21049	0.80455
1045.28192	0.80338
1043.35336	0.80507
1041.42479	0.80819
1039.49623	0.81131
1037.56766	0.81392
1035.63910	0.81551
1033.71053	0.81547
1031.78197	0.81344
1029.85341	0.80924
1027.92484	0.80284
1025.99628	0.79439
1024.06771	0.78479
1022.13915	0.77560
1020.21058	0.76784
1018.28202	0.76131
1016.35345	0.75492
1014.42489	0.74709
1012.49633	0.73624
1010.56776	0.72262
1008.63920	0.70804
1006.71063	0.69324
1004.78207	0.67810
1002.85350	0.66335
1000.92494	0.64952
998.99637	0.63660
997.06781	0.62502
995.13925	0.61415
993.21068	0.60241
991.28212	0.58899
989.35355	0.57350
987.42499	0.55660
985.49642	0.53990
983.56786	0.52427
981.63929	0.51010
979.71073	0.49816
977.78217	0.48860
975.85360	0.48034
973.92504	0.47202
971.99647	0.46301
970.06791	0.45392
968.13934	0.44591
966.21078	0.44007
964.28221	0.43754
962.35365	0.43953
960.42509	0.44721
958.49652	0.46033
956.56796	0.47520
954.63939	0.48638
952.71083	0.49143
950.78226	0.49179
948.85370	0.49011
946.92513	0.48869
944.99657	0.48864
943.06801	0.48973
941.13944	0.49122
939.21088	0.49246
937.28231	0.49303
935.35375	0.49270
933.42518	0.49143
931.49662	0.48909
929.56805	0.48573
927.63949	0.48197
925.71093	0.47808
923.78236	0.47375
921.85380	0.46866
919.92523	0.46288
917.99667	0.45668
916.06810	0.45076
914.13954	0.44586
912.21098	0.44244
910.28241	0.44077
908.35385	0.44124
906.42528	0.44423
904.49672	0.44936
902.56815	0.45556
900.63959	0.46231
898.71102	0.46927
896.78246	0.47584
894.85390	0.48192
892.92533	0.48780
890.99677	0.49382
889.06820	0.50045
887.13964	0.50813
885.21107	0.51667
883.28251	0.52543
881.35394	0.53392
879.42538	0.54155
877.49682	0.54816
875.56825	0.55418
873.63969	0.55895
871.71112	0.56159
869.78256	0.56270
867.85399	0.56269
865.92543	0.56131
863.99686	0.55908
862.06830	0.55700
860.13974	0.55513
858.21117	0.55299
856.28261	0.55090
854.35404	0.54926
852.42548	0.54770
850.49691	0.54571
848.56835	0.54329
846.63978	0.54142
844.71122	0.54079
842.78266	0.54095
840.85409	0.54200
838.92553	0.54450
836.99696	0.54816
835.06840	0.55285
833.13983	0.55826
831.21127	0.56381
829.28270	0.56967
827.35414	0.57569
825.42558	0.58124
823.49701	0.58633
821.56845	0.59131
819.63988	0.59607
817.71132	0.60023
815.78275	0.60348
813.85419	0.60543
811.92562	0.60618
809.99706	0.60602
808.06850	0.60484
806.13993	0.60250
804.21137	0.59902
802.28280	0.59461
800.35424	0.58968
798.42567	0.58450
796.49711	0.57932
794.56854	0.57471
792.63998	0.57111
790.71142	0.56869
788.78285	0.56757
786.85429	0.56748
784.92572	0.56843
782.99716	0.57098
781.06859	0.57507
779.14003	0.57989
777.21147	0.58509
775.28290	0.59136
773.35434	0.59913
771.42577	0.60757
769.49721	0.61614
767.56864	0.62492
765.64008	0.63331
763.71151	0.64105
761.78295	0.64895
759.85439	0.65678
757.92582	0.66341
755.99726	0.66843
754.06869	0.67192
752.14013	0.67467
750.21156	0.67745
748.28300	0.67965
746.35443	0.68027
744.42587	0.67920
742.49731	0.67700
740.56874	0.67373
738.64018	0.66937
736.71161	0.66516
734.78305	0.66175
732.85448	0.65858
730.92592	0.65605
728.99735	0.65506
727.06879	0.65590
725.14023	0.65819
723.21166	0.66126
721.28310	0.66565
719.35453	0.67135
717.42597	0.67675
715.49740	0.68216
713.56884	0.68859
711.64027	0.69584
709.71171	0.70390
707.78315	0.71311
705.85458	0.72282
703.92602	0.73145
701.99745	0.73937
700.06889	0.74758
698.14032	0.75435
696.21176	0.75950
694.28319	0.76415
692.35463	0.76660
690.42607	0.76625
688.49750	0.76452
686.56894	0.76163
684.64037	0.75838
682.71181	0.75623
680.78324	0.75460
678.85468	0.75163
676.92611	0.74621
674.99755	0.73925
673.06899	0.73354
671.14042	0.73079
669.21186	0.72829
667.28329	0.72112
665.35473	0.71453
663.42616	0.71029
661.49760	0.70722
659.56903	0.70564
657.64047	0.70541
655.71191	0.70670
653.78334	0.70874
651.85478	0.70982
649.92621	0.71143
647.99765	0.71572
646.06908	0.72205
644.14052	0.72934
642.21195	0.73672
640.28339	0.74315
638.35483	0.74698
636.42626	0.74727
634.49770	0.74619
632.56913	0.74602
630.64057	0.74592
628.71200	0.74433
626.78344	0.74130
624.85488	0.73691
622.92631	0.73160
620.99775	0.72684
619.06918	0.72213
617.14062	0.71616
615.21205	0.70998
613.28349	0.70308
611.35492	0.69365
609.42636	0.68479
607.49780	0.68070
605.56923	0.67918
603.64067	0.67720
601.71210	0.67590
599.78354	0.67545
