3997.91406	0.35758
3995.98550	0.35815
3994.05693	0.35814
3992.12837	0.35775
3990.19980	0.35737
3988.27124	0.35670
3986.34268	0.35616
3984.41411	0.35680
3982.48555	0.35795
3980.55698	0.35852
3978.62842	0.35828
3976.69985	0.35734
3974.77129	0.35628
3972.84272	0.35593
3970.91416	0.35588
3968.98560	0.35540
3967.05703	0.35507
3965.12847	0.35476
3963.19990	0.35397
3961.27134	0.35304
3959.34277	0.35230
3957.41421	0.35178
3955.48564	0.35111
3953.55708	0.35036
3951.62852	0.35023
3949.69995	0.35097
3947.77139	0.35139
3945.84282	0.35001
3943.91426	0.34910
3941.98569	0.35038
3940.05713	0.35129
3938.12856	0.35100
3936.20000	0.35061
3934.27144	0.35051
3932.34287	0.35045
3930.41431	0.35018
3928.48574	0.34962
3926.55718	0.34900
3924.62861	0.34862
3922.70005	0.34721
3920.77148	0.34507
3918.84292	0.34479
3916.91436	0.34639
3914.98579	0.34629
3913.05723	0.34406
3911.12866	0.34223
3909.20010	0.34129
3907.27153	0.34055
3905.34297	0.34042
3903.41440	0.34016
3901.48584	0.34003
3899.55728	0.34189
3897.62871	0.34277
3895.70015	0.34116
3893.77158	0.33993
3891.84302	0.34113
3889.91445	0.34108
3887.98589	0.33930
3886.05733	0.33960
3884.12876	0.33998
3882.20020	0.33865
3880.27163	0.33926
3878.34307	0.33874
3876.41450	0.33667
3874.48594	0.33675
3872.55737	0.33763
3870.62881	0.33981
3868.70025	0.34325
3866.77168	0.34283
3864.84312	0.34167
3862.91455	0.34195
3860.98599	0.34018
3859.05742	0.33619
3857.12886	0.33134
3855.20029	0.33033
3853.27173	0.34170
3851.34317	0.34664
3849.41460	0.34101
3847.48604	0.33550
3845.55747	0.33310
3843.62891	0.33299
3841.70034	0.33293
3839.77178	0.33385
3837.84321	0.33624
3835.91465	0.33577
3833.98609	0.33419
3832.05752	0.33380
3830.12896	0.33244
3828.20039	0.33013
3826.27183	0.32890
3824.34326	0.32842
3822.41470	0.33119
3820.48613	0.33687
3818.55757	0.33594
3816.62901	0.33374
3814.70044	0.33375
3812.77188	0.33189
3810.84331	0.32855
3808.91475	0.32686
3806.98618	0.32906
3805.05762	0.32962
3803.12905	0.32788
3801.20049	0.32993
3799.27193	0.33118
3797.34336	0.33086
3795.41480	0.33155
3793.48623	0.33023
3791.55767	0.32793
3789.62910	0.32679
3787.70054	0.32573
3785.77197	0.32498
3783.84341	0.32530
3781.91485	0.32533
3779.98628	0.32581
3778.05772	0.32621
3776.12915	0.32460
3774.20059	0.32231
3772.27202	0.32098
3770.34346	0.32178
3768.41489	0.32335
3766.48633	0.32410
3764.55777	0.32382
3762.62920	0.32167
3760.70064	0.32063
3758.77207	0.32299
3756.84351	0.32378
3754.91494	0.32089
3752.98638	0.31807
3751.05781	0.32127
3749.12925	0.32473
3747.20069	0.32353
3745.27212	0.32544
3743.34356	0.32868
3741.41499	0.32657
3739.48643	0.32204
3737.55786	0.31968
3735.62930	0.32315
3733.70074	0.32666
3731.77217	0.32511
3729.84361	0.32232
3727.91504	0.32102
3725.98648	0.32253
3724.05791	0.32463
3722.12935	0.32490
3720.20078	0.32450
3718.27222	0.32353
3716.34366	0.32096
3714.41509	0.31728
3712.48653	0.31701
3710.55796	0.32310
3708.62940	0.32578
3706.70083	0.32403
3704.77227	0.32170
3702.84370	0.32191
3700.91514	0.32475
3698.98658	0.32557
3697.05801	0.32486
3695.12945	0.32413
3693.20088	0.32336
3691.27232	0.32548
3689.34375	0.33276
3687.41519	0.33688
3685.48662	0.33667
3683.55806	0.33644
3681.62950	0.33699
3679.70093	0.33750
3677.77237	0.33922
3675.84380	0.34673
3673.91524	0.35113
3671.98667	0.34911
3670.05811	0.35195
3668.12954	0.35602
3666.20098	0.35560
3664.27242	0.35674
3662.34385	0.36072
3660.41529	0.36397
3658.48672	0.36680
3656.55816	0.37306
3654.62959	0.37778
3652.70103	0.37785
3650.77246	0.38240
3648.84390	0.39767
3646.91534	0.40426
3644.98677	0.40328
3643.05821	0.40371
3641.12964	0.40692
3639.20108	0.41063
3637.27251	0.41405
3635.34395	0.41845
3633.41538	0.42271
3631.48682	0.42607
3629.55826	0.43538
3627.62969	0.44848
3625.70113	0.45254
3623.77256	0.45335
3621.84400	0.45542
3619.91543	0.46216
3617.98687	0.47097
3616.05830	0.47491
3614.12974	0.47883
3612.20118	0.48518
3610.27261	0.49034
3608.34405	0.49585
3606.41548	0.50132
3604.48692	0.50397
3602.55835	0.50689
3600.62979	0.51280
3598.70123	0.51983
3596.77266	0.52683
3594.84410	0.53514
3592.91553	0.54179
3590.98697	0.54411
3589.05840	0.54834
3587.12984	0.56015
3585.20127	0.56901
3583.27271	0.57208
3581.34415	0.57616
3579.41558	0.58296
3577.48702	0.59001
3575.55845	0.59612
3573.62989	0.60179
3571.70132	0.60734
3569.77276	0.61359
3567.84419	0.62373
3565.91563	0.63616
3563.98707	0.64341
3562.05850	0.64890
3560.12994	0.65586
3558.20137	0.66279
3556.27281	0.66878
3554.34424	0.67641
3552.41568	0.68683
3550.48711	0.69519
3548.55855	0.69960
3546.62999	0.70369
3544.70142	0.71121
3542.77286	0.72084
3540.84429	0.72821
3538.91573	0.73282
3536.98716	0.73819
3535.05860	0.74634
3533.13003	0.75483
3531.20147	0.76217
3529.27291	0.76952
3527.34434	0.77760
3525.41578	0.78570
3523.48721	0.79355
3521.55865	0.80153
3519.63008	0.80925
3517.70152	0.81582
3515.77295	0.82139
3513.84439	0.82811
3511.91583	0.83753
3509.98726	0.84966
3508.05870	0.86153
3506.13013	0.86946
3504.20157	0.87868
3502.27300	0.89395
3500.34444	0.90720
3498.41587	0.91415
3496.48731	0.92020
3494.55875	0.92933
3492.63018	0.93924
3490.70162	0.94826
3488.77305	0.95844
3486.84449	0.96866
3484.91592	0.97573
3482.98736	0.98077
3481.05879	0.98469
3479.13023	0.98802
3477.20167	0.99322
3475.27310	0.99722
3473.34454	0.99717
3471.41597	0.99842
3469.48741	1.00399
3467.55884	1.01174
3465.63028	1.02024
3463.70171	1.02805
3461.77315	1.03276
3459.84459	1.03478
3457.91602	1.03700
3455.98746	1.04133
3454.05889	1.04916
3452.13033	1.05908
3450.20176	1.06504
3448.27320	1.06570
3446.34464	1.06778
3444.41607	1.07201
3442.48751	1.07406
3440.55894	1.07530
3438.63038	1.07735
3436.70181	1.07965
3434.77325	1.08262
3432.84468	1.08538
3430.91612	1.08676
3428.98756	1.08780
3427.05899	1.08905
3425.13043	1.08998
3423.20186	1.09087
3421.27330	1.09109
3419.34473	1.08961
3417.41617	1.09017
3415.48760	1.09497
3413.55904	1.09991
3411.63048	1.10368
3409.70191	1.10630
3407.77335	1.10658
3405.84478	1.10629
3403.91622	1.10621
3401.98765	1.10667
3400.05909	1.10734
3398.13052	1.10780
3396.20196	1.10907
3394.27340	1.11062
3392.34483	1.11278
3390.41627	1.11399
3388.48770	1.11329
3386.55914	1.11484
3384.63057	1.11885
3382.70201	1.12176
3380.77344	1.12421
3378.84488	1.12770
3376.91632	1.13054
3374.98775	1.13211
3373.05919	1.13422
3371.13062	1.13730
3369.20206	1.14147
3367.27349	1.14685
3365.34493	1.14999
3363.41636	1.14968
3361.48780	1.15146
3359.55924	1.15637
3357.63067	1.16034
3355.70211	1.16444
3353.77354	1.17054
3351.84498	1.17687
3349.91641	1.18269
3347.98785	1.18872
3346.05928	1.19357
3344.13072	1.19565
3342.20216	1.19679
3340.27359	1.19949
3338.34503	1.20422
3336.41646	1.21028
3334.48790	1.21637
3332.55933	1.22002
3330.63077	1.22157
3328.70220	1.22607
3326.77364	1.23280
3324.84508	1.23645
3322.91651	1.23829
3320.98795	1.24162
3319.05938	1.24796
3317.13082	1.25825
3315.20225	1.26950
3313.27369	1.27480
3311.34513	1.27266
3309.41656	1.27267
3307.48800	1.27968
3305.55943	1.28556
3303.63087	1.28680
3301.70230	1.28885
3299.77374	1.29164
3297.84517	1.29166
3295.91661	1.29109
3293.98805	1.29145
3292.05948	1.29183
3290.13092	1.29427
3288.20235	1.29792
3286.27379	1.29867
3284.34522	1.29816
3282.41666	1.30064
3280.48809	1.30604
3278.55953	1.30915
3276.63097	1.30421
3274.70240	1.29709
3272.77384	1.29791
3270.84527	1.29920
3268.91671	1.28964
3266.98814	1.27663
3265.05958	1.26963
3263.13101	1.26483
3261.20245	1.25756
3259.27389	1.24794
3257.34532	1.23639
3255.41676	1.22566
3253.48819	1.21886
3251.55963	1.21496
3249.63106	1.20948
3247.70250	1.19968
3245.77393	1.18837
3243.84537	1.17899
3241.91681	1.17155
3239.98824	1.16487
3238.05968	1.15804
3236.13111	1.15049
3234.20255	1.14237
3232.27398	1.13522
3230.34542	1.13001
3228.41685	1.12549
3226.48829	1.12014
3224.55973	1.11420
3222.63116	1.11054
3220.70260	1.10952
3218.77403	1.10546
3216.84547	1.09546
3214.91690	1.08432
3212.98834	1.07808
3211.05977	1.07744
3209.13121	1.07734
3207.20265	1.07382
3205.27408	1.06740
3203.34552	1.06026
3201.41695	1.05559
3199.48839	1.05313
3197.55982	1.04795
3195.63126	1.03960
3193.70269	1.03222
3191.77413	1.02629
3189.84557	1.01972
3187.91700	1.01281
3185.98844	1.00703
3184.05987	1.00198
3182.13131	0.99655
3180.20274	0.99060
3178.27418	0.98394
3176.34562	0.97598
3174.41705	0.96805
3172.48849	0.96271
3170.55992	0.95991
3168.63136	0.95801
3166.70279	0.95735
3164.77423	0.95698
3162.84566	0.95307
3160.91710	0.94644
3158.98854	0.94246
3157.05997	0.94076
3155.13141	0.93691
3153.20284	0.93139
3151.27428	0.92737
3149.34571	0.92478
3147.41715	0.92144
3145.48858	0.91716
3143.56002	0.91379
3141.63146	0.91223
3139.70289	0.91128
3137.77433	0.90973
3135.84576	0.90828
3133.91720	0.90808
3131.98863	0.90789
3130.06007	0.90589
3128.13150	0.90290
3126.20294	0.90004
3124.27438	0.89793
3122.34581	0.89804
3120.41725	0.90025
3118.48868	0.90276
3116.56012	0.90399
3114.63155	0.90311
3112.70299	0.90165
3110.77442	0.90217
3108.84586	0.90432
3106.91730	0.90562
3104.98873	0.90530
3103.06017	0.90416
3101.13160	0.90223
3099.20304	0.90000
3097.27447	0.89941
3095.34591	0.90019
3093.41734	0.89990
3091.48878	0.89838
3089.56022	0.89651
3087.63165	0.89435
3085.70309	0.89271
3083.77452	0.89146
3081.84596	0.88870
3079.91739	0.88463
3077.98883	0.88160
3076.06026	0.88014
3074.13170	0.87896
3072.20314	0.87708
3070.27457	0.87429
3068.34601	0.87064
3066.41744	0.86700
3064.48888	0.86385
3062.56031	0.85993
3060.63175	0.85466
3058.70318	0.84867
3056.77462	0.84293
3054.84606	0.83839
3052.91749	0.83408
3050.98893	0.82868
3049.06036	0.82303
3047.13180	0.81796
3045.20323	0.81346
3043.27467	0.81019
3041.34610	0.80794
3039.41754	0.80494
3037.48898	0.80066
3035.56041	0.79648
3033.63185	0.79293
3031.70328	0.78899
3029.77472	0.78470
3027.84615	0.78146
3025.91759	0.77986
3023.98903	0.77896
3022.06046	0.77705
3020.13190	0.77356
3018.20333	0.77016
3016.27477	0.76791
3014.34620	0.76533
3012.41764	0.76144
3010.48907	0.75771
3008.56051	0.75580
3006.63195	0.75507
3004.70338	0.75430
3002.77482	0.75396
3000.84625	0.75403
2998.91769	0.75327
2996.98912	0.75263
2995.06056	0.75420
2993.13199	0.75785
2991.20343	0.76216
2989.27487	0.76725
2987.34630	0.77397
2985.41774	0.78149
2983.48917	0.78914
2981.56061	0.79782
2979.63204	0.80723
2977.70348	0.81631
2975.77491	0.82534
2973.84635	0.83508
2971.91779	0.84585
2969.98922	0.85661
2968.06066	0.86614
2966.13209	0.87437
2964.20353	0.88095
2962.27496	0.88544
2960.34640	0.88669
2958.41783	0.88375
2956.48927	0.87922
2954.56071	0.87498
2952.63214	0.87023
2950.70358	0.86509
2948.77501	0.86034
2946.84645	0.85799
2944.91788	0.86108
2942.98932	0.86982
2941.06075	0.88131
2939.13219	0.89265
2937.20363	0.90346
2935.27506	0.91472
2933.34650	0.92611
2931.41793	0.93631
2929.48937	0.94379
2927.56080	0.94862
2925.63224	0.95324
2923.70367	0.95843
2921.77511	0.96101
2919.84655	0.95806
2917.91798	0.94948
2915.98942	0.93492
2914.06085	0.91510
2912.13229	0.89441
2910.20372	0.87577
2908.27516	0.85916
2906.34659	0.84522
2904.41803	0.83471
2902.48947	0.82750
2900.56090	0.82250
2898.63234	0.81758
2896.70377	0.81205
2894.77521	0.80701
2892.84664	0.80269
2890.91808	0.79869
2888.98952	0.79429
2887.06095	0.78965
2885.13239	0.78745
2883.20382	0.78820
2881.27526	0.78897
2879.34669	0.78888
2877.41813	0.78914
2875.48956	0.78934
2873.56100	0.78825
2871.63244	0.78490
2869.70387	0.77884
2867.77531	0.77123
2865.84674	0.76397
2863.91818	0.75866
2861.98961	0.75628
2860.06105	0.75695
2858.13248	0.76001
2856.20392	0.76386
2854.27536	0.76807
2852.34679	0.77244
2850.41823	0.77223
2848.48966	0.76089
2846.56110	0.73849
2844.63253	0.71273
2842.70397	0.69092
2840.77540	0.67477
2838.84684	0.66278
2836.91828	0.65367
2834.98971	0.64688
2833.06115	0.64141
2831.13258	0.63567
2829.20402	0.62955
2827.27545	0.62449
2825.34689	0.62076
2823.41832	0.61708
2821.48976	0.61319
2819.56120	0.61012
2817.63263	0.60795
2815.70407	0.60509
2813.77550	0.60113
2811.84694	0.59768
2809.91837	0.59521
2807.98981	0.59247
2806.06124	0.58908
2804.13268	0.58603
2802.20412	0.58361
2800.27555	0.58155
2798.34699	0.57994
2796.41842	0.57830
2794.48986	0.57579
2792.56129	0.57263
2790.63273	0.57002
2788.70416	0.56831
2786.77560	0.56642
2784.84704	0.56399
2782.91847	0.56184
2780.98991	0.56012
2779.06134	0.55797
2777.13278	0.55521
2775.20421	0.55268
2773.27565	0.55085
2771.34708	0.54914
2769.41852	0.54669
2767.48996	0.54383
2765.56139	0.54164
2763.63283	0.54015
2761.70426	0.53822
2759.77570	0.53564
2757.84713	0.53318
2755.91857	0.53129
2753.99001	0.53007
2752.06144	0.52889
2750.13288	0.52693
2748.20431	0.52474
2746.27575	0.52339
2744.34718	0.52266
2742.41862	0.52175
2740.49005	0.52067
2738.56149	0.51958
2736.63293	0.51845
2734.70436	0.51758
2732.77580	0.51665
2730.84723	0.51519
2728.91867	0.51366
2726.99010	0.51253
2725.06154	0.51142
2723.13297	0.50994
2721.20441	0.50831
2719.27585	0.50680
2717.34728	0.50533
2715.41872	0.50370
2713.49015	0.50140
2711.56159	0.49841
2709.63302	0.49584
2707.70446	0.49398
2705.77589	0.49204
2703.84733	0.48984
2701.91877	0.48768
2699.99020	0.48570
2698.06164	0.48377
2696.13307	0.48144
2694.20451	0.47879
2692.27594	0.47657
2690.34738	0.47495
2688.41881	0.47342
2686.49025	0.47168
2684.56169	0.46961
2682.63312	0.46726
2680.70456	0.46529
2678.77599	0.46398
2676.84743	0.46239
2674.91886	0.46026
2672.99030	0.45872
2671.06173	0.45793
2669.13317	0.45695
2667.20461	0.45557
2665.27604	0.45409
2663.34748	0.45285
2661.41891	0.45175
2659.49035	0.45054
2657.56178	0.44924
2655.63322	0.44793
2653.70465	0.44653
2651.77609	0.44497
2649.84753	0.44359
2647.91896	0.44264
2645.99040	0.44179
2644.06183	0.44057
2642.13327	0.43856
2640.20470	0.43589
2638.27614	0.43355
2636.34757	0.43213
2634.41901	0.43078
2632.49045	0.42893
2630.56188	0.42720
2628.63332	0.42594
2626.70475	0.42489
2624.77619	0.42382
2622.84762	0.42257
2620.91906	0.42128
2618.99049	0.42016
2617.06193	0.41901
2615.13337	0.41809
2613.20480	0.41785
2611.27624	0.41778
2609.34767	0.41737
2607.41911	0.41695
2605.49054	0.41678
2603.56198	0.41672
2601.63342	0.41641
2599.70485	0.41555
2597.77629	0.41441
2595.84772	0.41372
2593.91916	0.41361
2591.99059	0.41334
2590.06203	0.41262
2588.13346	0.41215
2586.20490	0.41192
2584.27634	0.41129
2582.34777	0.41035
2580.41921	0.40939
2578.49064	0.40844
2576.56208	0.40748
2574.63351	0.40640
2572.70495	0.40511
2570.77638	0.40378
2568.84782	0.40251
2566.91926	0.40123
2564.99069	0.39995
2563.06213	0.39865
2561.13356	0.39708
2559.20500	0.39554
2557.27643	0.39451
2555.34787	0.39363
2553.41930	0.39239
2551.49074	0.39097
2549.56218	0.38965
2547.63361	0.38829
2545.70505	0.38701
2543.77648	0.38615
2541.84792	0.38547
2539.91935	0.38454
2537.99079	0.38355
2536.06222	0.38280
2534.13366	0.38213
2532.20510	0.38135
2530.27653	0.38045
2528.34797	0.37965
2526.41940	0.37912
2524.49084	0.37834
2522.56227	0.37718
2520.63371	0.37621
2518.70514	0.37544
2516.77658	0.37434
2514.84802	0.37296
2512.91945	0.37172
2510.99089	0.37070
2509.06232	0.36950
2507.13376	0.36790
2505.20519	0.36624
2503.27663	0.36496
2501.34806	0.36385
2499.41950	0.36239
2497.49094	0.36076
2495.56237	0.35926
2493.63381	0.35760
2491.70524	0.35588
2489.77668	0.35460
2487.84811	0.35371
2485.91955	0.35263
2483.99098	0.35112
2482.06242	0.34949
2480.13386	0.34805
2478.20529	0.34672
2476.27673	0.34537
2474.34816	0.34389
2472.41960	0.34221
2470.49103	0.34049
2468.56247	0.33904
2466.63391	0.33793
2464.70534	0.33687
2462.77678	0.33539
2460.84821	0.33366
2458.91965	0.33241
2456.99108	0.33148
2455.06252	0.33012
2453.13395	0.32842
2451.20539	0.32704
2449.27683	0.32598
2447.34826	0.32483
2445.41970	0.32363
2443.49113	0.32257
2441.56257	0.32146
2439.63400	0.32012
2437.70544	0.31887
2435.77687	0.31796
2433.84831	0.31726
2431.91975	0.31645
2429.99118	0.31558
2428.06262	0.31494
2426.13405	0.31427
2424.20549	0.31323
2422.27692	0.31195
2420.34836	0.31083
2418.41979	0.31011
2416.49123	0.30955
2414.56267	0.30884
2412.63410	0.30804
2410.70554	0.30732
2408.77697	0.30641
2406.84841	0.30508
2404.91984	0.30386
2402.99128	0.30299
2401.06271	0.30200
2399.13415	0.30073
2397.20559	0.29930
2395.27702	0.29777
2393.34846	0.29640
2391.41989	0.29543
2389.49133	0.29466
2387.56276	0.29368
2385.63420	0.29233
2383.70563	0.29081
2381.77707	0.28945
2379.84851	0.28858
2377.91994	0.28793
2375.99138	0.28673
2374.06281	0.28501
2372.13425	0.28308
2370.20568	0.28157
2368.27712	0.28223
2366.34855	0.28504
2364.41999	0.28650
2362.49143	0.28450
2360.56286	0.28353
2358.63430	0.28660
2356.70573	0.28874
2354.77717	0.28726
2352.84860	0.28486
2350.92004	0.28315
2348.99147	0.28199
2347.06291	0.28107
2345.13435	0.28024
2343.20578	0.28025
2341.27722	0.28124
2339.34865	0.28124
2337.42009	0.28002
2335.49152	0.27959
2333.56296	0.28002
2331.63440	0.27897
2329.70583	0.27579
2327.77727	0.27277
2325.84870	0.27152
2323.92014	0.27161
2321.99157	0.27215
2320.06301	0.27252
2318.13444	0.27230
2316.20588	0.27120
2314.27732	0.26946
2312.34875	0.26785
2310.42019	0.26701
2308.49162	0.26674
2306.56306	0.26633
2304.63449	0.26546
2302.70593	0.26456
2300.77736	0.26406
2298.84880	0.26378
2296.92024	0.26344
2294.99167	0.26312
2293.06311	0.26285
2291.13454	0.26247
2289.20598	0.26205
2287.27741	0.26185
2285.34885	0.26174
2283.42028	0.26149
2281.49172	0.26097
2279.56316	0.26017
2277.63459	0.25932
2275.70603	0.25876
2273.77746	0.25830
2271.84890	0.25761
2269.92033	0.25678
2267.99177	0.25608
2266.06320	0.25540
2264.13464	0.25434
2262.20608	0.25301
2260.27751	0.25178
2258.34895	0.25075
2256.42038	0.24989
2254.49182	0.24922
2252.56325	0.24841
2250.63469	0.24726
2248.70612	0.24616
2246.77756	0.24538
2244.84900	0.24481
2242.92043	0.24442
2240.99187	0.24430
2239.06330	0.24423
2237.13474	0.24380
2235.20617	0.24299
2233.27761	0.24237
2231.34904	0.24221
2229.42048	0.24209
2227.49192	0.24178
2225.56335	0.24162
2223.63479	0.24165
2221.70622	0.24161
2219.77766	0.24152
2217.84909	0.24145
2215.92053	0.24139
2213.99196	0.24131
2212.06340	0.24104
2210.13484	0.24071
2208.20627	0.24053
2206.27771	0.24050
2204.34914	0.24047
2202.42058	0.24021
2200.49201	0.23979
2198.56345	0.23947
2196.63488	0.23912
2194.70632	0.23860
2192.77776	0.23800
2190.84919	0.23735
2188.92063	0.23664
2186.99206	0.23608
2185.06350	0.23576
2183.13493	0.23548
2181.20637	0.23516
2179.27781	0.23494
2177.34924	0.23495
2175.42068	0.23507
2173.49211	0.23501
2171.56355	0.23462
2169.63498	0.23429
2167.70642	0.23451
2165.77785	0.23502
2163.84929	0.23520
2161.92073	0.23505
2159.99216	0.23495
2158.06360	0.23485
2156.13503	0.23447
2154.20647	0.23402
2152.27790	0.23373
2150.34934	0.23336
2148.42077	0.23264
2146.49221	0.23179
2144.56365	0.23099
2142.63508	0.23021
2140.70652	0.22945
2138.77795	0.22875
2136.84939	0.22822
2134.92082	0.22799
2132.99226	0.22791
2131.06369	0.22776
2129.13513	0.22747
2127.20657	0.22703
2125.27800	0.22662
2123.34944	0.22652
2121.42087	0.22654
2119.49231	0.22626
2117.56374	0.22585
2115.63518	0.22564
2113.70661	0.22543
2111.77805	0.22494
2109.84949	0.22438
2107.92092	0.22411
2105.99236	0.22399
2104.06379	0.22361
2102.13523	0.22301
2100.20666	0.22258
2098.27810	0.22231
2096.34953	0.22188
2094.42097	0.22134
2092.49241	0.22075
2090.56384	0.21995
2088.63528	0.21901
2086.70671	0.21817
2084.77815	0.21744
2082.84958	0.21646
2080.92102	0.21506
2078.99245	0.21347
2077.06389	0.21198
2075.13533	0.21078
2073.20676	0.20974
2071.27820	0.20858
2069.34963	0.20719
2067.42107	0.20587
2065.49250	0.20501
2063.56394	0.20439
2061.63537	0.20361
2059.70681	0.20286
2057.77825	0.20238
2055.84968	0.20204
2053.92112	0.20175
2051.99255	0.20172
2050.06399	0.20195
2048.13542	0.20223
2046.20686	0.20253
2044.27830	0.20295
2042.34973	0.20353
2040.42117	0.20416
2038.49260	0.20453
2036.56404	0.20450
2034.63547	0.20416
2032.70691	0.20361
2030.77834	0.20288
2028.84978	0.20204
2026.92122	0.20122
2024.99265	0.20034
2023.06409	0.19933
2021.13552	0.19814
2019.20696	0.19674
2017.27839	0.19531
2015.34983	0.19388
2013.42126	0.19238
2011.49270	0.19079
2009.56414	0.18924
2007.63557	0.18776
2005.70701	0.18624
2003.77844	0.18478
2001.84988	0.18354
1999.92131	0.18251
1997.99275	0.18154
1996.06418	0.18049
1994.13562	0.17960
1992.20706	0.17930
1990.27849	0.17941
1988.34993	0.17957
1986.42136	0.17989
1984.49280	0.18055
1982.56423	0.18166
1980.63567	0.18304
1978.70710	0.18436
1976.77854	0.18585
1974.84998	0.18766
1972.92141	0.18951
1970.99285	0.19102
1969.06428	0.19237
1967.13572	0.19397
1965.20715	0.19530
1963.27859	0.19592
1961.35002	0.19620
1959.42146	0.19612
1957.49290	0.19553
1955.56433	0.19459
1953.63577	0.19345
1951.70720	0.19198
1949.77864	0.19015
1947.85007	0.18817
1945.92151	0.18617
1943.99294	0.18426
1942.06438	0.18261
1940.13582	0.18106
1938.20725	0.17954
1936.27869	0.17825
1934.35012	0.17724
1932.42156	0.17650
1930.49299	0.17606
1928.56443	0.17589
1926.63586	0.17576
1924.70730	0.17595
1922.77874	0.17675
1920.85017	0.17739
1918.92161	0.17814
1916.99304	0.17948
1915.06448	0.18040
1913.13591	0.18091
1911.20735	0.18200
1909.27878	0.18392
1907.35022	0.18575
1905.42166	0.18713
1903.49309	0.18866
1901.56453	0.19039
1899.63596	0.19180
1897.70740	0.19289
1895.77883	0.19416
1893.85027	0.19527
1891.92171	0.19568
1889.99314	0.19612
1888.06458	0.19639
1886.13601	0.19562
1884.20745	0.19417
1882.27888	0.19249
1880.35032	0.19063
1878.42175	0.18863
1876.49319	0.18649
1874.56463	0.18426
1872.63606	0.18213
1870.70750	0.18062
1868.77893	0.18042
1866.85037	0.18056
1864.92180	0.17992
1862.99324	0.17933
1861.06467	0.17942
1859.13611	0.18015
1857.20755	0.18123
1855.27898	0.18257
1853.35042	0.18425
1851.42185	0.18611
1849.49329	0.18789
1847.56472	0.18951
1845.63616	0.19170
1843.70759	0.19485
1841.77903	0.19647
1839.85047	0.19658
1837.92190	0.19711
1835.99334	0.19820
1834.06477	0.19872
1832.13621	0.19907
1830.20764	0.20063
1828.27908	0.20227
1826.35051	0.20280
1824.42195	0.20325
1822.49339	0.20321
1820.56482	0.20248
1818.63626	0.20184
1816.70769	0.20117
1814.77913	0.20012
1812.85056	0.19902
1810.92200	0.19826
1808.99343	0.19739
1807.06487	0.19598
1805.13631	0.19436
1803.20774	0.19309
1801.27918	0.19311
1799.35061	0.19439
1797.42205	0.19561
1795.49348	0.19653
1793.56492	0.19853
1791.63635	0.20265
1789.70779	0.20569
1787.77923	0.20721
1785.85066	0.20948
1783.92210	0.21267
1781.99353	0.21610
1780.06497	0.21981
1778.13640	0.22245
1776.20784	0.22351
1774.27927	0.22497
1772.35071	0.22889
1770.42215	0.23264
1768.49358	0.23451
1766.56502	0.23578
1764.63645	0.23646
1762.70789	0.23809
1760.77932	0.24150
1758.85076	0.24495
1756.92220	0.24954
1754.99363	0.25448
1753.06507	0.25870
1751.13650	0.26550
1749.20794	0.27608
1747.27937	0.28548
1745.35081	0.29249
1743.42224	0.29852
1741.49368	0.30439
1739.56512	0.31029
1737.63655	0.31410
1735.70799	0.31704
1733.77942	0.32450
1731.85086	0.33222
1729.92229	0.33718
1727.99373	0.34259
1726.06516	0.34868
1724.13660	0.35657
1722.20804	0.36479
1720.27947	0.37192
1718.35091	0.38378
1716.42234	0.40570
1714.49378	0.42422
1712.56521	0.43836
1710.63665	0.45414
1708.70808	0.47340
1706.77952	0.50195
1704.85096	0.54045
1702.92239	0.57541
1700.99383	0.62149
1699.06526	0.69299
1697.13670	0.75735
1695.20813	0.81771
1693.27957	0.86054
1691.35100	0.89102
1689.42244	0.92690
1687.49388	0.96002
1685.56531	0.99109
1683.63675	1.03312
1681.70818	1.05945
1679.77962	1.07161
1677.85105	1.08123
1675.92249	1.09209
1673.99392	1.10382
1672.06536	1.11194
1670.13680	1.11816
1668.20823	1.12524
1666.27967	1.12768
1664.35110	1.12746
1662.42254	1.12731
1660.49397	1.12613
1658.56541	1.12415
1656.63684	1.12060
1654.70828	1.11660
1652.77972	1.11591
1650.85115	1.11488
1648.92259	1.11124
1646.99402	1.10745
1645.06546	1.10476
1643.13689	1.10111
1641.20833	1.09832
1639.27976	1.09626
1637.35120	1.09336
1635.42264	1.08803
1633.49407	1.08182
1631.56551	1.07617
1629.63694	1.06924
1627.70838	1.06113
1625.77981	1.05255
1623.85125	1.04169
1621.92269	1.02804
1619.99412	1.01595
1618.06556	1.00322
1616.13699	0.98398
1614.20843	0.96538
1612.27986	0.94905
1610.35130	0.93121
1608.42273	0.91245
1606.49417	0.89550
1604.56561	0.88114
1602.63704	0.86888
1600.70848	0.85962
1598.77991	0.85353
1596.85135	0.85000
1594.92278	0.84860
1592.99422	0.84874
1591.06565	0.85090
1589.13709	0.85617
1587.20853	0.86458
1585.27996	0.87534
1583.35140	0.88825
1581.42283	0.90160
1579.49427	0.91309
1577.56570	0.92746
1575.63714	0.95000
1573.70857	0.96504
1571.78001	0.97376
1569.85145	0.98890
1567.92288	1.00620
1565.99432	1.01680
1564.06575	1.02522
1562.13719	1.03106
1560.20862	1.03684
1558.28006	1.04975
1556.35149	1.05351
1554.42293	1.05141
1552.49437	1.04848
1550.56580	1.04515
1548.63724	1.04085
1546.70867	1.03551
1544.78011	1.02986
1542.85154	1.02585
1540.92298	1.02303
1538.99441	1.01495
1537.06585	1.00672
1535.13729	0.99905
1533.20872	0.99112
1531.28016	0.98393
1529.35159	0.97691
1527.42303	0.96822
1525.49446	0.95889
1523.56590	0.95296
1521.63733	0.95062
1519.70877	0.94784
1517.78021	0.94041
1515.85164	0.92783
1513.92308	0.91332
1511.99451	0.89850
1510.06595	0.88428
1508.13738	0.86566
1506.20882	0.83517
1504.28025	0.81669
1502.35169	0.80434
1500.42313	0.79081
1498.49456	0.77473
1496.56600	0.75687
1494.63743	0.74234
1492.70887	0.73173
1490.78030	0.72075
1488.85174	0.70817
1486.92317	0.69954
1484.99461	0.69464
1483.06605	0.69184
1481.13748	0.69169
1479.20892	0.69473
1477.28035	0.70127
1475.35179	0.71223
1473.42322	0.73025
1471.49466	0.74880
1469.56610	0.75713
1467.63753	0.76149
1465.70897	0.76767
1463.78040	0.77488
1461.85184	0.77864
1459.92327	0.78065
1457.99471	0.78759
1456.06614	0.79657
1454.13758	0.79576
1452.20902	0.79187
1450.28045	0.78803
1448.35189	0.78418
1446.42332	0.77985
1444.49476	0.77497
1442.56619	0.76944
1440.63763	0.76381
1438.70906	0.75835
1436.78050	0.75209
1434.85194	0.74514
1432.92337	0.73884
1430.99481	0.73372
1429.06624	0.73052
1427.13768	0.72937
1425.20911	0.73044
1423.28055	0.73332
1421.35198	0.73707
1419.42342	0.74446
1417.49486	0.75370
1415.56629	0.75804
1413.63773	0.76049
1411.70916	0.76376
1409.78060	0.76747
1407.85203	0.77079
1405.92347	0.77548
1403.99490	0.78182
1402.06634	0.78621
1400.13778	0.78913
1398.20921	0.79243
1396.28065	0.79530
1394.35208	0.79708
1392.42352	0.79776
1390.49495	0.79837
1388.56639	0.80188
1386.63782	0.80956
1384.70926	0.81664
1382.78070	0.82082
1380.85213	0.82205
1378.92357	0.81951
1376.99500	0.81323
1375.06644	0.80239
1373.13787	0.78782
1371.20931	0.77331
1369.28074	0.75828
1367.35218	0.74255
1365.42362	0.72833
1363.49505	0.71519
1361.56649	0.70460
1359.63792	0.69886
1357.70936	0.69603
1355.78079	0.69495
1353.85223	0.69610
1351.92366	0.69908
1349.99510	0.70301
1348.06654	0.70778
1346.13797	0.71321
1344.20941	0.71879
1342.28084	0.72448
1340.35228	0.73144
1338.42371	0.73970
1336.49515	0.74795
1334.56659	0.75687
1332.63802	0.76684
1330.70946	0.77673
1328.78089	0.78501
1326.85233	0.79084
1324.92376	0.79429
1322.99520	0.79574
1321.06663	0.79610
1319.13807	0.79652
1317.20951	0.79674
1315.28094	0.79573
1313.35238	0.79382
1311.42381	0.79183
1309.49525	0.78948
1307.56668	0.78617
1305.63812	0.78179
1303.70955	0.77681
1301.78099	0.77197
1299.85243	0.76729
1297.92386	0.76233
1295.99530	0.75766
1294.06673	0.75456
1292.13817	0.75341
1290.20960	0.75375
1288.28104	0.75497
1286.35247	0.75690
1284.42391	0.75972
1282.49535	0.76327
1280.56678	0.76748
1278.63822	0.77274
1276.70965	0.77903
1274.78109	0.78590
1272.85252	0.79321
1270.92396	0.80083
1268.99539	0.80839
1267.06683	0.81542
1265.13827	0.82100
1263.20970	0.82415
1261.28114	0.82500
1259.35257	0.82453
1257.42401	0.82349
1255.49544	0.82230
1253.56688	0.82095
1251.63831	0.81933
1249.70975	0.81748
1247.78119	0.81498
1245.85262	0.81170
1243.92406	0.80836
1241.99549	0.80531
1240.06693	0.80256
1238.13836	0.79975
1236.20980	0.79614
1234.28123	0.79170
1232.35267	0.78677
1230.42411	0.78144
1228.49554	0.77614
1226.56698	0.77107
1224.63841	0.76596
1222.70985	0.76098
1220.78128	0.75666
1218.85272	0.75363
1216.92415	0.75258
1214.99559	0.75396
1213.06703	0.75791
1211.13846	0.76398
1209.20990	0.77060
1207.28133	0.77574
1205.35277	0.77818
1203.42420	0.77782
1201.49564	0.77528
1199.56708	0.77134
1197.63851	0.76648
1195.70995	0.76097
1193.78138	0.75550
1191.85282	0.75080
1189.92425	0.74704
1187.99569	0.74407
1186.06712	0.74174
1184.13856	0.74009
1182.21000	0.73971
1180.28143	0.74140
1178.35287	0.74549
1176.42430	0.75205
1174.49574	0.76080
1172.56717	0.77041
1170.63861	0.78020
1168.71004	0.79160
1166.78148	0.80536
1164.85292	0.81999
1162.92435	0.83290
1160.99579	0.84172
1159.06722	0.84561
1157.13866	0.84476
1155.21009	0.84003
1153.28153	0.83332
1151.35296	0.82601
1149.42440	0.81856
1147.49584	0.81183
1145.56727	0.80675
1143.63871	0.80423
1141.71014	0.80484
1139.78158	0.80826
1137.85301	0.81406
1135.92445	0.82140
1133.99588	0.82958
1132.06732	0.83970
1130.13876	0.85248
1128.21019	0.86597
1126.28163	0.87774
1124.35306	0.88661
1122.42450	0.89302
1120.49593	0.89851
1118.56737	0.90305
1116.63880	0.90469
1114.71024	0.90233
1112.78168	0.89699
1110.85311	0.89042
1108.92455	0.88449
1106.99598	0.88044
1105.06742	0.87792
1103.13885	0.87674
1101.21029	0.87754
1099.28172	0.88061
1097.35316	0.88617
1095.42460	0.89476
1093.49603	0.90645
1091.56747	0.92026
1089.63890	0.93473
1087.71034	0.94908
1085.78177	0.96282
1083.85321	0.97472
1081.92464	0.98332
1079.99608	0.98727
1078.06752	0.98544
1076.13895	0.97893
1074.21039	0.97102
1072.28182	0.96324
1070.35326	0.95490
1068.42469	0.94568
1066.49613	0.93535
1064.56756	0.92342
1062.63900	0.91006
1060.71044	0.89584
1058.78187	0.88181
1056.85331	0.86876
1054.92474	0.85623
1052.99618	0.84429
1051.06761	0.83386
1049.13905	0.82540
1047.21049	0.81940
1045.28192	0.81707
1043.35336	0.81863
1041.42479	0.82218
1039.49623	0.82592
1037.56766	0.82899
1035.63910	0.83086
1033.71053	0.83181
1031.78197	0.83194
1029.85341	0.83044
1027.92484	0.82713
1025.99628	0.82329
1024.06771	0.82056
1022.13915	0.81888
1020.21058	0.81756
1018.28202	0.81758
1016.35345	0.81958
1014.42489	0.82108
1012.49633	0.81916
1010.56776	0.81405
1008.63920	0.80713
1006.71063	0.79843
1004.78207	0.78817
1002.85350	0.77738
1000.92494	0.76604
998.99637	0.75452
997.06781	0.74442
995.13925	0.73478
993.21068	0.72289
991.28212	0.70868
989.35355	0.69385
987.42499	0.67895
985.49642	0.66408
983.56786	0.65046
981.63929	0.63957
979.71073	0.63160
977.78217	0.62536
975.85360	0.61983
973.92504	0.61484
971.99647	0.61044
970.06791	0.60648
968.13934	0.60334
966.21078	0.60256
964.28221	0.60536
962.35365	0.61209
960.42509	0.62333
958.49652	0.63882
956.56796	0.65543
954.63939	0.66889
952.71083	0.67719
950.78226	0.68038
948.85370	0.67959
946.92513	0.67709
944.99657	0.67424
943.06801	0.67083
941.13944	0.66641
939.21088	0.66088
937.28231	0.65425
935.35375	0.64590
933.42518	0.63540
931.49662	0.62398
929.56805	0.61279
927.63949	0.60177
925.71093	0.59119
923.78236	0.58127
921.85380	0.57171
919.92523	0.56239
917.99667	0.55372
916.06810	0.54634
914.13954	0.54047
912.21098	0.53660
910.28241	0.53603
908.35385	0.53904
906.42528	0.54489
904.49672	0.55298
902.56815	0.56262
900.63959	0.57306
898.71102	0.58354
896.78246	0.59307
894.85390	0.60098
892.92533	0.60731
890.99677	0.61236
889.06820	0.61673
887.13964	0.62079
885.21107	0.62409
883.28251	0.62645
881.35394	0.62771
879.42538	0.62696
877.49682	0.62371
875.56825	0.61834
873.63969	0.61129
871.71112	0.60269
869.78256	0.59254
867.85399	0.58129
865.92543	0.56983
863.99686	0.55889
862.06830	0.54887
860.13974	0.53998
858.21117	0.53241
856.28261	0.52630
854.35404	0.52171
852.42548	0.51853
850.49691	0.51659
848.56835	0.51572
846.63978	0.51602
844.71122	0.51805
842.78266	0.52227
840.85409	0.52846
838.92553	0.53629
836.99696	0.54593
835.06840	0.55704
833.13983	0.56857
831.21127	0.58012
829.28270	0.59182
827.35414	0.60407
825.42558	0.61660
823.49701	0.62781
821.56845	0.63729
819.63988	0.64585
817.71132	0.65358
815.78275	0.66044
813.85419	0.66603
811.92562	0.66942
809.99706	0.67034
808.06850	0.66896
806.13993	0.66517
804.21137	0.65914
802.28280	0.65201
800.35424	0.64476
798.42567	0.63700
796.49711	0.62871
794.56854	0.62132
792.63998	0.61586
790.71142	0.61182
788.78285	0.60853
786.85429	0.60624
784.92572	0.60545
782.99716	0.60600
781.06859	0.60755
779.14003	0.61068
777.21147	0.61608
775.28290	0.62336
773.35434	0.63099
771.42577	0.63766
769.49721	0.64372
767.56864	0.65009
765.64008	0.65692
763.71151	0.66405
761.78295	0.67064
759.85439	0.67594
757.92582	0.68032
755.99726	0.68400
754.06869	0.68699
752.14013	0.68954
750.21156	0.69119
748.28300	0.69083
746.35443	0.68829
744.42587	0.68490
742.49731	0.68136
740.56874	0.67678
738.64018	0.67101
736.71161	0.66515
734.78305	0.66032
732.85448	0.65734
730.92592	0.65585
728.99735	0.65506
727.06879	0.65542
725.14023	0.65717
723.21166	0.66019
721.28310	0.66501
719.35453	0.67056
717.42597	0.67493
715.49740	0.67963
713.56884	0.68671
711.64027	0.69494
709.71171	0.70300
707.78315	0.71149
705.85458	0.72021
703.92602	0.72788
701.99745	0.73433
700.06889	0.74100
698.14032	0.74745
696.21176	0.75009
694.28319	0.74857
692.35463	0.74735
690.42607	0.74782
688.49750	0.74765
686.56894	0.74617
684.64037	0.74374
682.71181	0.73945
680.78324	0.73293
678.85468	0.72559
676.92611	0.71930
674.99755	0.71472
673.06899	0.71050
671.14042	0.70534
669.21186	0.69968
667.28329	0.69602
665.35473	0.69390
663.42616	0.69183
661.49760	0.68958
659.56903	0.68725
657.64047	0.68699
655.71191	0.69024
653.78334	0.69453
651.85478	0.69675
649.92621	0.69767
647.99765	0.69920
646.06908	0.70154
644.14052	0.70698
642.21195	0.71694
640.28339	0.72701
638.35483	0.73202
636.42626	0.73302
634.49770	0.73404
632.56913	0.73518
630.64057	0.73499
628.71200	0.73318
626.78344	0.72852
624.85488	0.72115
622.92631	0.71356
620.99775	0.70704
619.06918	0.70094
617.14062	0.69373
615.21205	0.68535
613.28349	0.67799
611.35492	0.67327
609.42636	0.67046
607.49780	0.66696
605.56923	0.66143
603.64067	0.65702
601.71210	0.65588
599.78354	0.65371
