3997.91406	0.15068
3995.98550	0.15030
3994.05693	0.15006
3992.12837	0.15016
3990.19980	0.15039
3988.27124	0.15034
3986.34268	0.14991
3984.41411	0.14948
3982.48555	0.14904
3980.55698	0.14859
3978.62842	0.14847
3976.69985	0.14840
3974.77129	0.14801
3972.84272	0.14779
3970.91416	0.14820
3968.98560	0.14867
3967.05703	0.14829
3965.12847	0.14721
3963.19990	0.14632
3961.27134	0.14536
3959.34277	0.14389
3957.41421	0.14299
3955.48564	0.14301
3953.55708	0.14292
3951.62852	0.14203
3949.69995	0.14163
3947.77139	0.14225
3945.84282	0.14189
3943.91426	0.14127
3941.98569	0.14154
3940.05713	0.14126
3938.12856	0.14075
3936.20000	0.14058
3934.27144	0.14092
3932.34287	0.14246
3930.41431	0.14341
3928.48574	0.14216
3926.55718	0.14098
3924.62861	0.14131
3922.70005	0.14114
3920.77148	0.13983
3918.84292	0.13914
3916.91436	0.13994
3914.98579	0.14070
3913.05723	0.14018
3911.12866	0.13912
3909.20010	0.13750
3907.27153	0.13520
3905.34297	0.13453
3903.41440	0.13747
3901.48584	0.14134
3899.55728	0.14313
3897.62871	0.14134
3895.70015	0.13757
3893.77158	0.13561
3891.84302	0.13788
3889.91445	0.13857
3887.98589	0.13561
3886.05733	0.13569
3884.12876	0.13841
3882.20020	0.13796
3880.27163	0.13668
3878.34307	0.13439
3876.41450	0.13128
3874.48594	0.13019
3872.55737	0.13038
3870.62881	0.13237
3868.70025	0.13453
3866.77168	0.13243
3864.84312	0.13027
3862.91455	0.13017
3860.98599	0.12827
3859.05742	0.12485
3857.12886	0.12177
3855.20029	0.12319
3853.27173	0.13404
3851.34317	0.13629
3849.41460	0.13042
3847.48604	0.12527
3845.55747	0.12239
3843.62891	0.12183
3841.70034	0.12226
3839.77178	0.12386
3837.84321	0.12684
3835.91465	0.12715
3833.98609	0.12613
3832.05752	0.12561
3830.12896	0.12374
3828.20039	0.12108
3826.27183	0.11953
3824.34326	0.11793
3822.41470	0.11842
3820.48613	0.12281
3818.55757	0.12311
3816.62901	0.12261
3814.70044	0.12322
3812.77188	0.12113
3810.84331	0.11812
3808.91475	0.11748
3806.98618	0.12062
3805.05762	0.12171
3803.12905	0.12113
3801.20049	0.12368
3799.27193	0.12323
3797.34336	0.12102
3795.41480	0.12028
3793.48623	0.11861
3791.55767	0.11667
3789.62910	0.11566
3787.70054	0.11498
3785.77197	0.11509
3783.84341	0.11539
3781.91485	0.11468
3779.98628	0.11524
3778.05772	0.11651
3776.12915	0.11509
3774.20059	0.11212
3772.27202	0.11045
3770.34346	0.11241
3768.41489	0.11479
3766.48633	0.11446
3764.55777	0.11342
3762.62920	0.11154
3760.70064	0.11012
3758.77207	0.11108
3756.84351	0.11085
3754.91494	0.10780
3752.98638	0.10594
3751.05781	0.11122
3749.12925	0.11491
3747.20069	0.11195
3745.27212	0.11178
3743.34356	0.11345
3741.41499	0.11016
3739.48643	0.10518
3737.55786	0.10301
3735.62930	0.10640
3733.70074	0.11048
3731.77217	0.10936
3729.84361	0.10564
3727.91504	0.10323
3725.98648	0.10394
3724.05791	0.10544
3722.12935	0.10613
3720.20078	0.10656
3718.27222	0.10568
3716.34366	0.10327
3714.41509	0.10102
3712.48653	0.10256
3710.55796	0.10743
3708.62940	0.10803
3706.70083	0.10607
3704.77227	0.10422
3702.84370	0.10436
3700.91514	0.10620
3698.98658	0.10610
3697.05801	0.10457
3695.12945	0.10301
3693.20088	0.10157
3691.27232	0.10260
3689.34375	0.10877
3687.41519	0.11251
3685.48662	0.11150
3683.55806	0.11000
3681.62950	0.10943
3679.70093	0.10918
3677.77237	0.11046
3675.84380	0.11787
3673.91524	0.12188
3671.98667	0.11942
3670.05811	0.12239
3668.12954	0.12678
3666.20098	0.12583
3664.27242	0.12497
3662.34385	0.12630
3660.41529	0.12800
3658.48672	0.12987
3656.55816	0.13424
3654.62959	0.13706
3652.70103	0.13577
3650.77246	0.13819
3648.84390	0.15183
3646.91534	0.15911
3644.98677	0.15799
3643.05821	0.15706
3641.12964	0.15857
3639.20108	0.16135
3637.27251	0.16444
3635.34395	0.16810
3633.41538	0.17116
3631.48682	0.17353
3629.55826	0.18216
3627.62969	0.19359
3625.70113	0.19501
3623.77256	0.19349
3621.84400	0.19396
3619.91543	0.19961
3617.98687	0.20752
3616.05830	0.21084
3614.12974	0.21346
3612.20118	0.21724
3610.27261	0.22043
3608.34405	0.22568
3606.41548	0.23149
3604.48692	0.23394
3602.55835	0.23645
3600.62979	0.24238
3598.70123	0.24855
3596.77266	0.25250
3594.84410	0.25671
3592.91553	0.26063
3590.98697	0.26244
3589.05840	0.26648
3587.12984	0.27618
3585.20127	0.28312
3583.27271	0.28581
3581.34415	0.28916
3579.41558	0.29414
3577.48702	0.29905
3575.55845	0.30359
3573.62989	0.30802
3571.70132	0.31113
3569.77276	0.31388
3567.84419	0.32202
3565.91563	0.33406
3563.98707	0.33876
3562.05850	0.34027
3560.12994	0.34413
3558.20137	0.34945
3556.27281	0.35419
3554.34424	0.35954
3552.41568	0.36639
3550.48711	0.37157
3548.55855	0.37526
3546.62999	0.38181
3544.70142	0.39086
3542.77286	0.39807
3540.84429	0.40295
3538.91573	0.40700
3536.98716	0.41193
3535.05860	0.41797
3533.13003	0.42364
3531.20147	0.42913
3529.27291	0.43541
3527.34434	0.44239
3525.41578	0.45018
3523.48721	0.45842
3521.55865	0.46504
3519.63008	0.47090
3517.70152	0.47831
3515.77295	0.48613
3513.84439	0.49349
3511.91583	0.50146
3509.98726	0.51028
3508.05870	0.51901
3506.13013	0.52742
3504.20157	0.53792
3502.27300	0.55061
3500.34444	0.56158
3498.41587	0.56991
3496.48731	0.57743
3494.55875	0.58529
3492.63018	0.59309
3490.70162	0.60046
3488.77305	0.60687
3486.84449	0.61210
3484.91592	0.61724
3482.98736	0.62398
3481.05879	0.63169
3479.13023	0.63704
3477.20167	0.63998
3475.27310	0.64298
3473.34454	0.64683
3471.41597	0.65036
3469.48741	0.65367
3467.55884	0.65832
3465.63028	0.66383
3463.70171	0.66880
3461.77315	0.67321
3459.84459	0.67818
3457.91602	0.68443
3455.98746	0.69098
3454.05889	0.69616
3452.13033	0.69910
3450.20176	0.70137
3448.27320	0.70500
3446.34464	0.70926
3444.41607	0.71270
3442.48751	0.71578
3440.55894	0.71863
3438.63038	0.72118
3436.70181	0.72361
3434.77325	0.72464
3432.84468	0.72441
3430.91612	0.72484
3428.98756	0.72539
3427.05899	0.72476
3425.13043	0.72383
3423.20186	0.72352
3421.27330	0.72344
3419.34473	0.72252
3417.41617	0.72106
3415.48760	0.72088
3413.55904	0.72255
3411.63048	0.72494
3409.70191	0.72645
3407.77335	0.72699
3405.84478	0.72740
3403.91622	0.72784
3401.98765	0.72986
3400.05909	0.73326
3398.13052	0.73510
3396.20196	0.73567
3394.27340	0.73716
3392.34483	0.73959
3390.41627	0.74133
3388.48770	0.74152
3386.55914	0.74175
3384.63057	0.74392
3382.70201	0.74696
3380.77344	0.74915
3378.84488	0.75113
3376.91632	0.75315
3374.98775	0.75450
3373.05919	0.75582
3371.13062	0.75855
3369.20206	0.76218
3367.27349	0.76429
3365.34493	0.76476
3363.41636	0.76571
3361.48780	0.76722
3359.55924	0.76814
3357.63067	0.76940
3355.70211	0.77259
3353.77354	0.77689
3351.84498	0.78113
3349.91641	0.78561
3347.98785	0.78942
3346.05928	0.79117
3344.13072	0.79290
3342.20216	0.79758
3340.27359	0.80353
3338.34503	0.80778
3336.41646	0.81134
3334.48790	0.81541
3332.55933	0.81910
3330.63077	0.82292
3328.70220	0.82798
3326.77364	0.83407
3324.84508	0.84119
3322.91651	0.84837
3320.98795	0.85394
3319.05938	0.85833
3317.13082	0.86239
3315.20225	0.86691
3313.27369	0.87296
3311.34513	0.87915
3309.41656	0.88463
3307.48800	0.89021
3305.55943	0.89413
3303.63087	0.89663
3301.70230	0.90145
3299.77374	0.90828
3297.84517	0.91404
3295.91661	0.91792
3293.98805	0.91936
3292.05948	0.91829
3290.13092	0.91799
3288.20235	0.92021
3286.27379	0.92215
3284.34522	0.92253
3282.41666	0.92300
3280.48809	0.92410
3278.55953	0.92471
3276.63097	0.92306
3274.70240	0.91925
3272.77384	0.91669
3270.84527	0.91632
3268.91671	0.91379
3266.98814	0.90664
3265.05958	0.89810
3263.13101	0.89166
3261.20245	0.88685
3259.27389	0.88105
3257.34532	0.87317
3255.41676	0.86347
3253.48819	0.85182
3251.55963	0.83811
3249.63106	0.82445
3247.70250	0.81413
3245.77393	0.80663
3243.84537	0.79870
3241.91681	0.78963
3239.98824	0.78081
3238.05968	0.77272
3236.13111	0.76539
3234.20255	0.75930
3232.27398	0.75361
3230.34542	0.74695
3228.41685	0.73988
3226.48829	0.73387
3224.55973	0.72911
3222.63116	0.72475
3220.70260	0.72057
3218.77403	0.71611
3216.84547	0.71127
3214.91690	0.70692
3212.98834	0.70208
3211.05977	0.69575
3209.13121	0.68946
3207.20265	0.68448
3205.27408	0.68025
3203.34552	0.67595
3201.41695	0.67121
3199.48839	0.66606
3197.55982	0.66052
3195.63126	0.65443
3193.70269	0.64842
3191.77413	0.64301
3189.84557	0.63741
3187.91700	0.63116
3185.98844	0.62479
3184.05987	0.61900
3182.13131	0.61401
3180.20274	0.60908
3178.27418	0.60372
3176.34562	0.59838
3174.41705	0.59340
3172.48849	0.58857
3170.55992	0.58333
3168.63136	0.57811
3166.70279	0.57393
3164.77423	0.57043
3162.84566	0.56663
3160.91710	0.56295
3158.98854	0.56005
3157.05997	0.55696
3155.13141	0.55310
3153.20284	0.54968
3151.27428	0.54709
3149.34571	0.54457
3147.41715	0.54163
3145.48858	0.53863
3143.56002	0.53653
3141.63146	0.53526
3139.70289	0.53388
3137.77433	0.53255
3135.84576	0.53160
3133.91720	0.53064
3131.98863	0.52984
3130.06007	0.52958
3128.13150	0.52946
3126.20294	0.52933
3124.27438	0.52927
3122.34581	0.52895
3120.41725	0.52860
3118.48868	0.52899
3116.56012	0.53023
3114.63155	0.53155
3112.70299	0.53240
3110.77442	0.53272
3108.84586	0.53303
3106.91730	0.53378
3104.98873	0.53428
3103.06017	0.53414
3101.13160	0.53375
3099.20304	0.53311
3097.27447	0.53259
3095.34591	0.53234
3093.41734	0.53170
3091.48878	0.53027
3089.56022	0.52829
3087.63165	0.52610
3085.70309	0.52385
3083.77452	0.52180
3081.84596	0.51984
3079.91739	0.51749
3077.98883	0.51481
3076.06026	0.51189
3074.13170	0.50877
3072.20314	0.50608
3070.27457	0.50399
3068.34601	0.50186
3066.41744	0.49917
3064.48888	0.49578
3062.56031	0.49198
3060.63175	0.48834
3058.70318	0.48519
3056.77462	0.48206
3054.84606	0.47792
3052.91749	0.47306
3050.98893	0.46911
3049.06036	0.46640
3047.13180	0.46373
3045.20323	0.46030
3043.27467	0.45631
3041.34610	0.45236
3039.41754	0.44926
3037.48898	0.44691
3035.56041	0.44412
3033.63185	0.44092
3031.70328	0.43826
3029.77472	0.43587
3027.84615	0.43322
3025.91759	0.43047
3023.98903	0.42776
3022.06046	0.42538
3020.13190	0.42375
3018.20333	0.42237
3016.27477	0.42077
3014.34620	0.41948
3012.41764	0.41827
3010.48907	0.41654
3008.56051	0.41508
3006.63195	0.41448
3004.70338	0.41412
3002.77482	0.41371
3000.84625	0.41354
2998.91769	0.41393
2996.98912	0.41514
2995.06056	0.41731
2993.13199	0.42058
2991.20343	0.42440
2989.27487	0.42817
2987.34630	0.43264
2985.41774	0.43867
2983.48917	0.44576
2981.56061	0.45295
2979.63204	0.45974
2977.70348	0.46574
2975.77491	0.47156
2973.84635	0.47852
2971.91779	0.48672
2969.98922	0.49498
2968.06066	0.50221
2966.13209	0.50807
2964.20353	0.51279
2962.27496	0.51603
2960.34640	0.51671
2958.41783	0.51413
2956.48927	0.50897
2954.56071	0.50285
2952.63214	0.49706
2950.70358	0.49244
2948.77501	0.48985
2946.84645	0.49009
2944.91788	0.49374
2942.98932	0.50053
2941.06075	0.50905
2939.13219	0.51810
2937.20363	0.52735
2935.27506	0.53628
2933.34650	0.54388
2931.41793	0.54979
2929.48937	0.55489
2927.56080	0.56017
2925.63224	0.56539
2923.70367	0.56899
2921.77511	0.56972
2919.84655	0.56735
2917.91798	0.56116
2915.98942	0.54937
2914.06085	0.53202
2912.13229	0.51319
2910.20372	0.49715
2908.27516	0.48485
2906.34659	0.47568
2904.41803	0.46905
2902.48947	0.46417
2900.56090	0.46018
2898.63234	0.45669
2896.70377	0.45379
2894.77521	0.45135
2892.84664	0.44903
2890.91808	0.44690
2888.98952	0.44462
2887.06095	0.44166
2885.13239	0.43893
2883.20382	0.43799
2881.27526	0.43912
2879.34669	0.44114
2877.41813	0.44207
2875.48956	0.44100
2873.56100	0.43833
2871.63244	0.43411
2869.70387	0.42830
2867.77531	0.42185
2865.84674	0.41616
2863.91818	0.41243
2861.98961	0.41132
2860.06105	0.41263
2858.13248	0.41595
2856.20392	0.42109
2854.27536	0.42701
2852.34679	0.43151
2850.41823	0.43096
2848.48966	0.42127
2846.56110	0.40333
2844.63253	0.38373
2842.70397	0.36755
2840.77540	0.35557
2838.84684	0.34673
2836.91828	0.33997
2834.98971	0.33517
2833.06115	0.33220
2831.13258	0.32974
2829.20402	0.32670
2827.27545	0.32346
2825.34689	0.32056
2823.41832	0.31799
2821.48976	0.31588
2819.56120	0.31432
2817.63263	0.31258
2815.70407	0.30996
2813.77550	0.30714
2811.84694	0.30504
2809.91837	0.30319
2807.98981	0.30103
2806.06124	0.29872
2804.13268	0.29641
2802.20412	0.29421
2800.27555	0.29223
2798.34699	0.29047
2796.41842	0.28873
2794.48986	0.28682
2792.56129	0.28476
2790.63273	0.28269
2788.70416	0.28086
2786.77560	0.27943
2784.84704	0.27804
2782.91847	0.27657
2780.98991	0.27538
2779.06134	0.27444
2777.13278	0.27341
2775.20421	0.27237
2773.27565	0.27157
2771.34708	0.27100
2769.41852	0.27021
2767.48996	0.26906
2765.56139	0.26803
2763.63283	0.26736
2761.70426	0.26666
2759.77570	0.26562
2757.84713	0.26462
2755.91857	0.26398
2753.99001	0.26336
2752.06144	0.26246
2750.13288	0.26153
2748.20431	0.26074
2746.27575	0.26005
2744.34718	0.25937
2742.41862	0.25862
2740.49005	0.25769
2738.56149	0.25640
2736.63293	0.25518
2734.70436	0.25454
2732.77580	0.25370
2730.84723	0.25212
2728.91867	0.25055
2726.99010	0.24942
2725.06154	0.24856
2723.13297	0.24798
2721.20441	0.24736
2719.27585	0.24667
2717.34728	0.24615
2715.41872	0.24558
2713.49015	0.24486
2711.56159	0.24412
2709.63302	0.24342
2707.70446	0.24268
2705.77589	0.24204
2703.84733	0.24164
2701.91877	0.24123
2699.99020	0.24055
2698.06164	0.23970
2696.13307	0.23893
2694.20451	0.23847
2692.27594	0.23829
2690.34738	0.23779
2688.41881	0.23668
2686.49025	0.23570
2684.56169	0.23533
2682.63312	0.23498
2680.70456	0.23406
2678.77599	0.23270
2676.84743	0.23149
2674.91886	0.23074
2672.99030	0.23030
2671.06173	0.22996
2669.13317	0.22954
2667.20461	0.22909
2665.27604	0.22882
2663.34748	0.22861
2661.41891	0.22829
2659.49035	0.22797
2657.56178	0.22754
2655.63322	0.22700
2653.70465	0.22682
2651.77609	0.22702
2649.84753	0.22696
2647.91896	0.22636
2645.99040	0.22563
2644.06183	0.22519
2642.13327	0.22479
2640.20470	0.22408
2638.27614	0.22348
2636.34757	0.22334
2634.41901	0.22320
2632.49045	0.22266
2630.56188	0.22191
2628.63332	0.22141
2626.70475	0.22132
2624.77619	0.22115
2622.84762	0.22055
2620.91906	0.21990
2618.99049	0.21942
2617.06193	0.21904
2615.13337	0.21871
2613.20480	0.21846
2611.27624	0.21827
2609.34767	0.21792
2607.41911	0.21758
2605.49054	0.21753
2603.56198	0.21744
2601.63342	0.21715
2599.70485	0.21680
2597.77629	0.21632
2595.84772	0.21581
2593.91916	0.21537
2591.99059	0.21487
2590.06203	0.21436
2588.13346	0.21387
2586.20490	0.21314
2584.27634	0.21223
2582.34777	0.21149
2580.41921	0.21089
2578.49064	0.21033
2576.56208	0.20979
2574.63351	0.20912
2572.70495	0.20837
2570.77638	0.20782
2568.84782	0.20751
2566.91926	0.20717
2564.99069	0.20678
2563.06213	0.20645
2561.13356	0.20604
2559.20500	0.20565
2557.27643	0.20550
2555.34787	0.20538
2553.41930	0.20515
2551.49074	0.20501
2549.56218	0.20489
2547.63361	0.20461
2545.70505	0.20434
2543.77648	0.20413
2541.84792	0.20389
2539.91935	0.20368
2537.99079	0.20350
2536.06222	0.20325
2534.13366	0.20309
2532.20510	0.20304
2530.27653	0.20289
2528.34797	0.20270
2526.41940	0.20267
2524.49084	0.20261
2522.56227	0.20242
2520.63371	0.20230
2518.70514	0.20208
2516.77658	0.20156
2514.84802	0.20109
2512.91945	0.20095
2510.99089	0.20103
2509.06232	0.20121
2507.13376	0.20132
2505.20519	0.20124
2503.27663	0.20117
2501.34806	0.20116
2499.41950	0.20113
2497.49094	0.20099
2495.56237	0.20062
2493.63381	0.20013
2491.70524	0.19986
2489.77668	0.19986
2487.84811	0.19991
2485.91955	0.19977
2483.99098	0.19918
2482.06242	0.19817
2480.13386	0.19706
2478.20529	0.19619
2476.27673	0.19564
2474.34816	0.19525
2472.41960	0.19483
2470.49103	0.19420
2468.56247	0.19334
2466.63391	0.19240
2464.70534	0.19160
2462.77678	0.19111
2460.84821	0.19069
2458.91965	0.19011
2456.99108	0.18955
2455.06252	0.18907
2453.13395	0.18859
2451.20539	0.18833
2449.27683	0.18827
2447.34826	0.18810
2445.41970	0.18790
2443.49113	0.18788
2441.56257	0.18783
2439.63400	0.18744
2437.70544	0.18700
2435.77687	0.18678
2433.84831	0.18659
2431.91975	0.18635
2429.99118	0.18623
2428.06262	0.18613
2426.13405	0.18597
2424.20549	0.18578
2422.27692	0.18545
2420.34836	0.18500
2418.41979	0.18476
2416.49123	0.18485
2414.56267	0.18496
2412.63410	0.18484
2410.70554	0.18470
2408.77697	0.18468
2406.84841	0.18454
2404.91984	0.18436
2402.99128	0.18443
2401.06271	0.18478
2399.13415	0.18519
2397.20559	0.18538
2395.27702	0.18546
2393.34846	0.18579
2391.41989	0.18640
2389.49133	0.18686
2387.56276	0.18693
2385.63420	0.18667
2383.70563	0.18628
2381.77707	0.18596
2379.84851	0.18578
2377.91994	0.18544
2375.99138	0.18455
2374.06281	0.18364
2372.13425	0.18352
2370.20568	0.18365
2368.27712	0.18325
2366.34855	0.18256
2364.41999	0.18115
2362.49143	0.17930
2360.56286	0.17879
2358.63430	0.17980
2356.70573	0.18097
2354.77717	0.18114
2352.84860	0.18017
2350.92004	0.17823
2348.99147	0.17560
2347.06291	0.17296
2345.13435	0.17164
2343.20578	0.17236
2341.27722	0.17340
2339.34865	0.17387
2337.42009	0.17423
2335.49152	0.17439
2333.56296	0.17408
2331.63440	0.17385
2329.70583	0.17425
2327.77727	0.17493
2325.84870	0.17488
2323.92014	0.17423
2321.99157	0.17446
2320.06301	0.17525
2318.13444	0.17498
2316.20588	0.17413
2314.27732	0.17371
2312.34875	0.17355
2310.42019	0.17340
2308.49162	0.17347
2306.56306	0.17356
2304.63449	0.17345
2302.70593	0.17342
2300.77736	0.17352
2298.84880	0.17350
2296.92024	0.17361
2294.99167	0.17406
2293.06311	0.17438
2291.13454	0.17448
2289.20598	0.17479
2287.27741	0.17534
2285.34885	0.17599
2283.42028	0.17661
2281.49172	0.17693
2279.56316	0.17702
2277.63459	0.17721
2275.70603	0.17760
2273.77746	0.17818
2271.84890	0.17882
2269.92033	0.17918
2267.99177	0.17916
2266.06320	0.17889
2264.13464	0.17857
2262.20608	0.17831
2260.27751	0.17796
2258.34895	0.17739
2256.42038	0.17691
2254.49182	0.17666
2252.56325	0.17631
2250.63469	0.17553
2248.70612	0.17449
2246.77756	0.17363
2244.84900	0.17314
2242.92043	0.17278
2240.99187	0.17240
2239.06330	0.17212
2237.13474	0.17191
2235.20617	0.17159
2233.27761	0.17125
2231.34904	0.17109
2229.42048	0.17102
2227.49192	0.17086
2225.56335	0.17069
2223.63479	0.17083
2221.70622	0.17123
2219.77766	0.17144
2217.84909	0.17132
2215.92053	0.17120
2213.99196	0.17127
2212.06340	0.17132
2210.13484	0.17123
2208.20627	0.17120
2206.27771	0.17125
2204.34914	0.17120
2202.42058	0.17105
2200.49201	0.17087
2198.56345	0.17066
2196.63488	0.17047
2194.70632	0.17032
2192.77776	0.17019
2190.84919	0.17007
2188.92063	0.16996
2186.99206	0.16976
2185.06350	0.16948
2183.13493	0.16927
2181.20637	0.16932
2179.27781	0.16961
2177.34924	0.16999
2175.42068	0.17035
2173.49211	0.17067
2171.56355	0.17097
2169.63498	0.17131
2167.70642	0.17182
2165.77785	0.17246
2163.84929	0.17299
2161.92073	0.17339
2159.99216	0.17388
2158.06360	0.17445
2156.13503	0.17486
2154.20647	0.17507
2152.27790	0.17516
2150.34934	0.17507
2148.42077	0.17492
2146.49221	0.17512
2144.56365	0.17555
2142.63508	0.17581
2140.70652	0.17594
2138.77795	0.17617
2136.84939	0.17641
2134.92082	0.17650
2132.99226	0.17645
2131.06369	0.17643
2129.13513	0.17652
2127.20657	0.17661
2125.27800	0.17667
2123.34944	0.17689
2121.42087	0.17719
2119.49231	0.17731
2117.56374	0.17741
2115.63518	0.17773
2113.70661	0.17820
2111.77805	0.17861
2109.84949	0.17891
2107.92092	0.17917
2105.99236	0.17940
2104.06379	0.17949
2102.13523	0.17935
2100.20666	0.17913
2098.27810	0.17899
2096.34953	0.17884
2094.42097	0.17862
2092.49241	0.17841
2090.56384	0.17814
2088.63528	0.17761
2086.70671	0.17700
2084.77815	0.17663
2082.84958	0.17639
2080.92102	0.17597
2078.99245	0.17534
2077.06389	0.17470
2075.13533	0.17430
2073.20676	0.17410
2071.27820	0.17390
2069.34963	0.17357
2067.42107	0.17318
2065.49250	0.17292
2063.56394	0.17263
2061.63537	0.17218
2059.70681	0.17191
2057.77825	0.17192
2055.84968	0.17192
2053.92112	0.17188
2051.99255	0.17193
2050.06399	0.17196
2048.13542	0.17177
2046.20686	0.17132
2044.27830	0.17080
2042.34973	0.17048
2040.42117	0.17040
2038.49260	0.17027
2036.56404	0.16986
2034.63547	0.16921
2032.70691	0.16853
2030.77834	0.16796
2028.84978	0.16754
2026.92122	0.16719
2024.99265	0.16669
2023.06409	0.16608
2021.13552	0.16555
2019.20696	0.16510
2017.27839	0.16477
2015.34983	0.16455
2013.42126	0.16427
2011.49270	0.16403
2009.56414	0.16395
2007.63557	0.16399
2005.70701	0.16399
2003.77844	0.16398
2001.84988	0.16405
1999.92131	0.16421
1997.99275	0.16440
1996.06418	0.16442
1994.13562	0.16448
1992.20706	0.16497
1990.27849	0.16544
1988.34993	0.16559
1986.42136	0.16576
1984.49280	0.16593
1982.56423	0.16603
1980.63567	0.16608
1978.70710	0.16604
1976.77854	0.16589
1974.84998	0.16570
1972.92141	0.16554
1970.99285	0.16530
1969.06428	0.16514
1967.13572	0.16538
1965.20715	0.16550
1963.27859	0.16520
1961.35002	0.16495
1959.42146	0.16480
1957.49290	0.16448
1955.56433	0.16405
1953.63577	0.16357
1951.70720	0.16308
1949.77864	0.16266
1947.85007	0.16233
1945.92151	0.16202
1943.99294	0.16185
1942.06438	0.16181
1940.13582	0.16127
1938.20725	0.16037
1936.27869	0.15957
1934.35012	0.15877
1932.42156	0.15789
1930.49299	0.15700
1928.56443	0.15600
1926.63586	0.15476
1924.70730	0.15358
1922.77874	0.15257
1920.85017	0.15127
1918.92161	0.15016
1916.99304	0.14955
1915.06448	0.14842
1913.13591	0.14676
1911.20735	0.14552
1909.27878	0.14500
1907.35022	0.14450
1905.42166	0.14372
1903.49309	0.14311
1901.56453	0.14277
1899.63596	0.14243
1897.70740	0.14213
1895.77883	0.14228
1893.85027	0.14254
1891.92171	0.14236
1889.99314	0.14253
1888.06458	0.14303
1886.13601	0.14303
1884.20745	0.14296
1882.27888	0.14317
1880.35032	0.14331
1878.42175	0.14313
1876.49319	0.14274
1874.56463	0.14222
1872.63606	0.14147
1870.70750	0.14098
1868.77893	0.14168
1866.85037	0.14226
1864.92180	0.14144
1862.99324	0.14028
1861.06467	0.13940
1859.13611	0.13881
1857.20755	0.13839
1855.27898	0.13803
1853.35042	0.13770
1851.42185	0.13739
1849.49329	0.13715
1847.56472	0.13693
1845.63616	0.13743
1843.70759	0.13894
1841.77903	0.13908
1839.85047	0.13790
1837.92190	0.13734
1835.99334	0.13759
1834.06477	0.13719
1832.13621	0.13638
1830.20764	0.13681
1828.27908	0.13755
1826.35051	0.13717
1824.42195	0.13663
1822.49339	0.13574
1820.56482	0.13439
1818.63626	0.13336
1816.70769	0.13253
1814.77913	0.13139
1812.85056	0.13033
1810.92200	0.13001
1808.99343	0.12978
1807.06487	0.12873
1805.13631	0.12729
1803.20774	0.12620
1801.27918	0.12624
1799.35061	0.12695
1797.42205	0.12692
1795.49348	0.12627
1793.56492	0.12654
1791.63635	0.12839
1789.70779	0.12891
1787.77923	0.12809
1785.85066	0.12781
1783.92210	0.12803
1781.99353	0.12842
1780.06497	0.12926
1778.13640	0.12971
1776.20784	0.12913
1774.27927	0.12894
1772.35071	0.13091
1770.42215	0.13290
1768.49358	0.13336
1766.56502	0.13327
1764.63645	0.13288
1762.70789	0.13356
1760.77932	0.13570
1758.85076	0.13761
1756.92220	0.14023
1754.99363	0.14294
1753.06507	0.14504
1751.13650	0.14973
1749.20794	0.15789
1747.27937	0.16455
1745.35081	0.16892
1743.42224	0.17273
1741.49368	0.17688
1739.56512	0.18112
1737.63655	0.18321
1735.70799	0.18458
1733.77942	0.18998
1731.85086	0.19464
1729.92229	0.19630
1727.99373	0.19821
1726.06516	0.20041
1724.13660	0.20376
1722.20804	0.20722
1720.27947	0.20995
1718.35091	0.21666
1716.42234	0.23202
1714.49378	0.24454
1712.56521	0.25281
1710.63665	0.26209
1708.70808	0.27395
1706.77952	0.29275
1704.85096	0.31830
1702.92239	0.34085
1700.99383	0.37285
1699.06526	0.42504
1697.13670	0.47361
1695.20813	0.51971
1693.27957	0.55256
1691.35100	0.57812
1689.42244	0.61041
1687.49388	0.64093
1685.56531	0.67260
1683.63675	0.72562
1681.70818	0.76485
1679.77962	0.78683
1677.85105	0.80734
1675.92249	0.83193
1673.99392	0.85895
1672.06536	0.88003
1670.13680	0.90293
1668.20823	0.92672
1666.27967	0.93811
1664.35110	0.94726
1662.42254	0.96291
1660.49397	0.97765
1658.56541	0.98510
1656.63684	0.98803
1654.70828	0.99224
1652.77972	0.99934
1650.85115	0.99897
1648.92259	0.99791
1646.99402	0.99998
1645.06546	0.99954
1643.13689	0.99543
1641.20833	0.99179
1639.27976	0.98869
1637.35120	0.98632
1635.42264	0.98474
1633.49407	0.98207
1631.56551	0.97819
1629.63694	0.97202
1627.70838	0.96379
1625.77981	0.95380
1623.85125	0.93892
1621.92269	0.91951
1619.99412	0.90189
1618.06556	0.88035
1616.13699	0.84735
1614.20843	0.81786
1612.27986	0.79316
1610.35130	0.76670
1608.42273	0.73964
1606.49417	0.71666
1604.56561	0.69915
1602.63704	0.68561
1600.70848	0.67532
1598.77991	0.66789
1596.85135	0.66298
1594.92278	0.65982
1592.99422	0.65779
1591.06565	0.65757
1589.13709	0.65980
1587.20853	0.66468
1585.27996	0.67210
1583.35140	0.68173
1581.42283	0.69232
1579.49427	0.70217
1577.56570	0.71509
1575.63714	0.73619
1573.70857	0.75104
1571.78001	0.76007
1569.85145	0.77601
1567.92288	0.79557
1565.99432	0.80914
1564.06575	0.82007
1562.13719	0.82793
1560.20862	0.83861
1558.28006	0.86632
1556.35149	0.87854
1554.42293	0.88060
1552.49437	0.88286
1550.56580	0.88470
1548.63724	0.88503
1546.70867	0.88407
1544.78011	0.88290
1542.85154	0.88114
1540.92298	0.87565
1538.99441	0.86825
1537.06585	0.86431
1535.13729	0.86002
1533.20872	0.85291
1531.28016	0.84450
1529.35159	0.83707
1527.42303	0.83032
1525.49446	0.82478
1523.56590	0.82088
1521.63733	0.81852
1519.70877	0.81802
1517.78021	0.81532
1515.85164	0.80752
1513.92308	0.79536
1511.99451	0.78071
1510.06595	0.76611
1508.13738	0.74617
1506.20882	0.71067
1504.28025	0.68795
1502.35169	0.67205
1500.42313	0.65465
1498.49456	0.63404
1496.56600	0.60998
1494.63743	0.58976
1492.70887	0.57516
1490.78030	0.56021
1488.85174	0.54275
1486.92317	0.52917
1484.99461	0.51966
1483.06605	0.51236
1481.13748	0.50730
1479.20892	0.50525
1477.28035	0.50670
1475.35179	0.51236
1473.42322	0.52545
1471.49466	0.54204
1469.56610	0.55076
1467.63753	0.55555
1465.70897	0.56243
1463.78040	0.57082
1461.85184	0.57527
1459.92327	0.57754
1457.99471	0.58533
1456.06614	0.59831
1454.13758	0.60216
1452.20902	0.60202
1450.28045	0.60151
1448.35189	0.60104
1446.42332	0.59983
1444.49476	0.59712
1442.56619	0.59328
1440.63763	0.58890
1438.70906	0.58401
1436.78050	0.57761
1434.85194	0.56962
1432.92337	0.56180
1430.99481	0.55427
1429.06624	0.54703
1427.13768	0.54109
1425.20911	0.53703
1423.28055	0.53468
1421.35198	0.53361
1419.42342	0.53468
1417.49486	0.53650
1415.56629	0.53554
1413.63773	0.53290
1411.70916	0.52992
1409.78060	0.52733
1407.85203	0.52579
1405.92347	0.52637
1403.99490	0.52893
1402.06634	0.53133
1400.13778	0.53396
1398.20921	0.53763
1396.28065	0.54162
1394.35208	0.54609
1392.42352	0.55034
1390.49495	0.55490
1388.56639	0.56375
1386.63782	0.57900
1384.70926	0.59444
1382.78070	0.60710
1380.85213	0.61743
1378.92357	0.62306
1376.99500	0.62233
1375.06644	0.61514
1373.13787	0.60258
1371.20931	0.58780
1369.28074	0.57045
1367.35218	0.55118
1365.42362	0.53346
1363.49505	0.51675
1361.56649	0.50163
1359.63792	0.49111
1357.70936	0.48402
1355.78079	0.47885
1353.85223	0.47514
1351.92366	0.47247
1349.99510	0.47100
1348.06654	0.47093
1346.13797	0.47178
1344.20941	0.47317
1342.28084	0.47528
1340.35228	0.47925
1338.42371	0.48539
1336.49515	0.49224
1334.56659	0.50008
1332.63802	0.50957
1330.70946	0.51995
1328.78089	0.52943
1326.85233	0.53651
1324.92376	0.54108
1322.99520	0.54408
1321.06663	0.54678
1319.13807	0.54995
1317.20951	0.55296
1315.28094	0.55514
1313.35238	0.55704
1311.42381	0.55842
1309.49525	0.55848
1307.56668	0.55744
1305.63812	0.55583
1303.70955	0.55398
1301.78099	0.55195
1299.85243	0.54930
1297.92386	0.54571
1295.99530	0.54188
1294.06673	0.53905
1292.13817	0.53797
1290.20960	0.53853
1288.28104	0.54022
1286.35247	0.54269
1284.42391	0.54541
1282.49535	0.54792
1280.56678	0.55029
1278.63822	0.55326
1276.70965	0.55735
1274.78109	0.56220
1272.85252	0.56766
1270.92396	0.57399
1268.99539	0.58067
1267.06683	0.58670
1265.13827	0.59134
1263.20970	0.59402
1261.28114	0.59488
1259.35257	0.59480
1257.42401	0.59427
1255.49544	0.59343
1253.56688	0.59237
1251.63831	0.59139
1249.70975	0.59083
1247.78119	0.59045
1245.85262	0.58992
1243.92406	0.58926
1241.99549	0.58874
1240.06693	0.58839
1238.13836	0.58769
1236.20980	0.58612
1234.28123	0.58381
1232.35267	0.58090
1230.42411	0.57716
1228.49554	0.57268
1226.56698	0.56762
1224.63841	0.56190
1222.70985	0.55610
1220.78128	0.55064
1218.85272	0.54519
1216.92415	0.54008
1214.99559	0.53631
1213.06703	0.53433
1211.13846	0.53391
1209.20990	0.53421
1207.28133	0.53371
1205.35277	0.53065
1203.42420	0.52411
1201.49564	0.51517
1199.56708	0.50565
1197.63851	0.49636
1195.70995	0.48762
1193.78138	0.48035
1191.85282	0.47547
1189.92425	0.47291
1187.99569	0.47232
1186.06712	0.47352
1184.13856	0.47628
1182.21000	0.48084
1180.28143	0.48789
1178.35287	0.49728
1176.42430	0.50843
1174.49574	0.52100
1172.56717	0.53445
1170.63861	0.54847
1168.71004	0.56377
1166.78148	0.58074
1164.85292	0.59836
1162.92435	0.61496
1160.99579	0.62858
1159.06722	0.63697
1157.13866	0.63866
1155.21009	0.63374
1153.28153	0.62371
1151.35296	0.61084
1149.42440	0.59682
1147.49584	0.58266
1145.56727	0.56987
1143.63871	0.56017
1141.71014	0.55415
1139.78158	0.55145
1137.85301	0.55161
1135.92445	0.55442
1133.99588	0.56007
1132.06732	0.56876
1130.13876	0.58053
1128.21019	0.59503
1126.28163	0.61080
1124.35306	0.62603
1122.42450	0.63975
1120.49593	0.65192
1118.56737	0.66251
1116.63880	0.67040
1114.71024	0.67408
1112.78168	0.67312
1110.85311	0.66904
1108.92455	0.66402
1106.99598	0.65895
1105.06742	0.65424
1103.13885	0.65078
1101.21029	0.64879
1099.28172	0.64817
1097.35316	0.64989
1095.42460	0.65493
1093.49603	0.66275
1091.56747	0.67246
1089.63890	0.68437
1087.71034	0.69926
1085.78177	0.71650
1083.85321	0.73424
1081.92464	0.75078
1079.99608	0.76440
1078.06752	0.77322
1076.13895	0.77661
1074.21039	0.77560
1072.28182	0.77135
1070.35326	0.76451
1068.42469	0.75607
1066.49613	0.74745
1064.56756	0.73963
1062.63900	0.73302
1060.71044	0.72754
1058.78187	0.72211
1056.85331	0.71610
1054.92474	0.71069
1052.99618	0.70737
1051.06761	0.70599
1049.13905	0.70576
1047.21049	0.70741
1045.28192	0.71202
1043.35336	0.71920
1041.42479	0.72750
1039.49623	0.73516
1037.56766	0.74146
1035.63910	0.74641
1033.71053	0.74947
1031.78197	0.75033
1029.85341	0.74933
1027.92484	0.74618
1025.99628	0.74014
1024.06771	0.73157
1022.13915	0.72260
1020.21058	0.71528
1018.28202	0.70958
1016.35345	0.70395
1014.42489	0.69644
1012.49633	0.68530
1010.56776	0.67058
1008.63920	0.65342
1006.71063	0.63451
1004.78207	0.61514
1002.85350	0.59712
1000.92494	0.58100
998.99637	0.56644
997.06781	0.55358
995.13925	0.54221
993.21068	0.53127
991.28212	0.51989
989.35355	0.50826
987.42499	0.49740
985.49642	0.48793
983.56786	0.47999
981.63929	0.47403
979.71073	0.47024
977.78217	0.46792
975.85360	0.46596
973.92504	0.46328
971.99647	0.45933
970.06791	0.45480
968.13934	0.45089
966.21078	0.44865
964.28221	0.44900
962.35365	0.45284
960.42509	0.46121
958.49652	0.47383
956.56796	0.48747
954.63939	0.49742
952.71083	0.50128
950.78226	0.50017
948.85370	0.49651
946.92513	0.49223
944.99657	0.48841
943.06801	0.48564
941.13944	0.48376
939.21088	0.48191
937.28231	0.47968
935.35375	0.47745
933.42518	0.47558
931.49662	0.47383
929.56805	0.47207
927.63949	0.47075
925.71093	0.47009
923.78236	0.46973
921.85380	0.46930
919.92523	0.46844
917.99667	0.46695
916.06810	0.46499
914.13954	0.46296
912.21098	0.46153
910.28241	0.46083
908.35385	0.46059
906.42528	0.46120
904.49672	0.46276
902.56815	0.46428
900.63959	0.46473
898.71102	0.46393
896.78246	0.46226
894.85390	0.45972
892.92533	0.45597
890.99677	0.45137
889.06820	0.44675
887.13964	0.44253
885.21107	0.43880
883.28251	0.43561
881.35394	0.43302
879.42538	0.43116
877.49682	0.43005
875.56825	0.42949
873.63969	0.42926
871.71112	0.42908
869.78256	0.42898
867.85399	0.42940
865.92543	0.43020
863.99686	0.43092
862.06830	0.43185
860.13974	0.43340
858.21117	0.43546
856.28261	0.43776
854.35404	0.43995
852.42548	0.44199
850.49691	0.44396
848.56835	0.44517
846.63978	0.44521
844.71122	0.44486
842.78266	0.44510
840.85409	0.44610
838.92553	0.44757
836.99696	0.44925
835.06840	0.45122
833.13983	0.45346
831.21127	0.45553
829.28270	0.45709
827.35414	0.45850
825.42558	0.46024
823.49701	0.46240
821.56845	0.46480
819.63988	0.46685
817.71132	0.46866
815.78275	0.47081
813.85419	0.47316
811.92562	0.47545
809.99706	0.47712
808.06850	0.47816
806.13993	0.47970
804.21137	0.48180
802.28280	0.48356
800.35424	0.48442
798.42567	0.48416
796.49711	0.48323
794.56854	0.48281
792.63998	0.48341
790.71142	0.48407
788.78285	0.48416
786.85429	0.48418
784.92572	0.48434
782.99716	0.48422
781.06859	0.48346
779.14003	0.48239
777.21147	0.48184
775.28290	0.48195
773.35434	0.48190
771.42577	0.48101
769.49721	0.47914
767.56864	0.47654
765.64008	0.47411
763.71151	0.47227
761.78295	0.47024
759.85439	0.46772
757.92582	0.46518
755.99726	0.46262
754.06869	0.45990
752.14013	0.45724
750.21156	0.45493
748.28300	0.45279
746.35443	0.45035
744.42587	0.44764
742.49731	0.44487
740.56874	0.44202
738.64018	0.43915
736.71161	0.43680
734.78305	0.43562
732.85448	0.43571
730.92592	0.43691
728.99735	0.43882
727.06879	0.44076
725.14023	0.44297
723.21166	0.44627
721.28310	0.45064
719.35453	0.45487
717.42597	0.45784
715.49740	0.46035
713.56884	0.46418
711.64027	0.46912
709.71171	0.47365
707.78315	0.47774
705.85458	0.48195
703.92602	0.48537
701.99745	0.48750
700.06889	0.48970
698.14032	0.49255
696.21176	0.49494
694.28319	0.49625
692.35463	0.49678
690.42607	0.49725
688.49750	0.49806
686.56894	0.49864
684.64037	0.49881
682.71181	0.49904
680.78324	0.49900
678.85468	0.49808
676.92611	0.49721
674.99755	0.49704
673.06899	0.49679
671.14042	0.49665
669.21186	0.49894
667.28329	0.50350
665.35473	0.50567
663.42616	0.50683
661.49760	0.50741
659.56903	0.50712
657.64047	0.50724
655.71191	0.50818
653.78334	0.50833
651.85478	0.50579
649.92621	0.50192
647.99765	0.49923
646.06908	0.49685
644.14052	0.49387
642.21195	0.49179
640.28339	0.49106
638.35483	0.49017
636.42626	0.48788
634.49770	0.48439
632.56913	0.48053
630.64057	0.47673
628.71200	0.47307
626.78344	0.47036
624.85488	0.47016
622.92631	0.47255
620.99775	0.47515
619.06918	0.47670
617.14062	0.47925
615.21205	0.48387
613.28349	0.48872
611.35492	0.49253
609.42636	0.49593
607.49780	0.49978
605.56923	0.50359
603.64067	0.50678
601.71210	0.50954
599.78354	0.51177
