3997.91406	0.48487
3995.98550	0.48489
3994.05693	0.48519
3992.12837	0.48516
3990.19980	0.48462
3988.27124	0.48387
3986.34268	0.48353
3984.41411	0.48328
3982.48555	0.48230
3980.55698	0.48159
3978.62842	0.48165
3976.69985	0.48151
3974.77129	0.48169
3972.84272	0.48291
3970.91416	0.48367
3968.98560	0.48259
3967.05703	0.48101
3965.12847	0.48103
3963.19990	0.48195
3961.27134	0.48177
3959.34277	0.48106
3957.41421	0.48102
3955.48564	0.48126
3953.55708	0.48091
3951.62852	0.47966
3949.69995	0.47883
3947.77139	0.47949
3945.84282	0.47980
3943.91426	0.47865
3941.98569	0.47689
3940.05713	0.47519
3938.12856	0.47467
3936.20000	0.47562
3934.27144	0.47592
3932.34287	0.47476
3930.41431	0.47385
3928.48574	0.47335
3926.55718	0.47297
3924.62861	0.47324
3922.70005	0.47344
3920.77148	0.47287
3918.84292	0.47168
3916.91436	0.47048
3914.98579	0.47019
3913.05723	0.47029
3911.12866	0.47023
3909.20010	0.46989
3907.27153	0.46869
3905.34297	0.46671
3903.41440	0.46531
3901.48584	0.46532
3899.55728	0.46577
3897.62871	0.46543
3895.70015	0.46472
3893.77158	0.46406
3891.84302	0.46285
3889.91445	0.46113
3887.98589	0.45988
3886.05733	0.46025
3884.12876	0.46127
3882.20020	0.46053
3880.27163	0.45929
3878.34307	0.45893
3876.41450	0.45876
3874.48594	0.45865
3872.55737	0.45892
3870.62881	0.45974
3868.70025	0.45846
3866.77168	0.45461
3864.84312	0.45155
3862.91455	0.45080
3860.98599	0.45044
3859.05742	0.45030
3857.12886	0.45137
3855.20029	0.45459
3853.27173	0.45760
3851.34317	0.45412
3849.41460	0.45025
3847.48604	0.44885
3845.55747	0.44902
3843.62891	0.44995
3841.70034	0.45179
3839.77178	0.45344
3837.84321	0.45193
3835.91465	0.44860
3833.98609	0.44734
3832.05752	0.44749
3830.12896	0.44660
3828.20039	0.44507
3826.27183	0.44475
3824.34326	0.44525
3822.41470	0.44469
3820.48613	0.44282
3818.55757	0.44165
3816.62901	0.44169
3814.70044	0.44236
3812.77188	0.44232
3810.84331	0.44138
3808.91475	0.44057
3806.98618	0.44068
3805.05762	0.44018
3803.12905	0.43938
3801.20049	0.44037
3799.27193	0.44065
3797.34336	0.43884
3795.41480	0.43669
3793.48623	0.43514
3791.55767	0.43427
3789.62910	0.43400
3787.70054	0.43403
3785.77197	0.43402
3783.84341	0.43360
3781.91485	0.43292
3779.98628	0.43298
3778.05772	0.43319
3776.12915	0.43241
3774.20059	0.43191
3772.27202	0.43256
3770.34346	0.43335
3768.41489	0.43239
3766.48633	0.43096
3764.55777	0.43129
3762.62920	0.43186
3760.70064	0.43140
3758.77207	0.43109
3756.84351	0.43084
3754.91494	0.42959
3752.98638	0.42854
3751.05781	0.43053
3749.12925	0.43285
3747.20069	0.43232
3745.27212	0.43064
3743.34356	0.42833
3741.41499	0.42615
3739.48643	0.42455
3737.55786	0.42390
3735.62930	0.42573
3733.70074	0.42892
3731.77217	0.42880
3729.84361	0.42654
3727.91504	0.42527
3725.98648	0.42602
3724.05791	0.42632
3722.12935	0.42523
3720.20078	0.42504
3718.27222	0.42486
3716.34366	0.42355
3714.41509	0.42293
3712.48653	0.42403
3710.55796	0.42410
3708.62940	0.42328
3706.70083	0.42404
3704.77227	0.42516
3702.84370	0.42564
3700.91514	0.42558
3698.98658	0.42518
3697.05801	0.42472
3695.12945	0.42349
3693.20088	0.42169
3691.27232	0.42263
3689.34375	0.42801
3687.41519	0.43146
3685.48662	0.43234
3683.55806	0.43318
3681.62950	0.43404
3679.70093	0.43385
3677.77237	0.43241
3675.84380	0.43495
3673.91524	0.44174
3671.98667	0.44500
3670.05811	0.44722
3668.12954	0.44959
3666.20098	0.45095
3664.27242	0.45263
3662.34385	0.45515
3660.41529	0.45782
3658.48672	0.46080
3656.55816	0.46522
3654.62959	0.46883
3652.70103	0.47058
3650.77246	0.47443
3648.84390	0.48355
3646.91534	0.49047
3644.98677	0.49410
3643.05821	0.49744
3641.12964	0.50087
3639.20108	0.50466
3637.27251	0.50980
3635.34395	0.51545
3633.41538	0.51952
3631.48682	0.52248
3629.55826	0.53017
3627.62969	0.54223
3625.70113	0.54832
3623.77256	0.55150
3621.84400	0.55609
3619.91543	0.56495
3617.98687	0.57384
3616.05830	0.57689
3614.12974	0.57874
3612.20118	0.58327
3610.27261	0.58949
3608.34405	0.59739
3606.41548	0.60561
3604.48692	0.61249
3602.55835	0.62007
3600.62979	0.62864
3598.70123	0.63591
3596.77266	0.64184
3594.84410	0.64900
3592.91553	0.65708
3590.98697	0.66364
3589.05840	0.67128
3587.12984	0.68198
3585.20127	0.69001
3583.27271	0.69461
3581.34415	0.69892
3579.41558	0.70581
3577.48702	0.71608
3575.55845	0.72660
3573.62989	0.73442
3571.70132	0.74008
3569.77276	0.74420
3567.84419	0.75016
3565.91563	0.76297
3563.98707	0.77491
3562.05850	0.78286
3560.12994	0.78876
3558.20137	0.79414
3556.27281	0.80137
3554.34424	0.81117
3552.41568	0.82057
3550.48711	0.82748
3548.55855	0.83645
3546.62999	0.84868
3544.70142	0.85841
3542.77286	0.86497
3540.84429	0.87145
3538.91573	0.87913
3536.98716	0.88742
3535.05860	0.89403
3533.13003	0.89990
3531.20147	0.90666
3529.27291	0.91351
3527.34434	0.92299
3525.41578	0.93546
3523.48721	0.94424
3521.55865	0.94921
3519.63008	0.95692
3517.70152	0.96788
3515.77295	0.97908
3513.84439	0.98948
3511.91583	0.99918
3509.98726	1.01129
3508.05870	1.02511
3506.13013	1.03505
3504.20157	1.04298
3502.27300	1.05212
3500.34444	1.06015
3498.41587	1.06636
3496.48731	1.07406
3494.55875	1.08481
3492.63018	1.09558
3490.70162	1.10508
3488.77305	1.11204
3486.84449	1.11481
3484.91592	1.11639
3482.98736	1.11902
3481.05879	1.12201
3479.13023	1.12670
3477.20167	1.13333
3475.27310	1.13988
3473.34454	1.14859
3471.41597	1.15927
3469.48741	1.16633
3467.55884	1.16961
3465.63028	1.17260
3463.70171	1.17646
3461.77315	1.18071
3459.84459	1.18332
3457.91602	1.18437
3455.98746	1.18872
3454.05889	1.19498
3452.13033	1.19748
3450.20176	1.20173
3448.27320	1.21148
3446.34464	1.21712
3444.41607	1.21552
3442.48751	1.21660
3440.55894	1.22401
3438.63038	1.23075
3436.70181	1.23156
3434.77325	1.22905
3432.84468	1.22864
3430.91612	1.23171
3428.98756	1.23513
3427.05899	1.23696
3425.13043	1.23941
3423.20186	1.24323
3421.27330	1.24729
3419.34473	1.25246
3417.41617	1.25343
3415.48760	1.24787
3413.55904	1.24639
3411.63048	1.25215
3409.70191	1.25710
3407.77335	1.25929
3405.84478	1.26057
3403.91622	1.26051
3401.98765	1.26294
3400.05909	1.27008
3398.13052	1.27409
3396.20196	1.27064
3394.27340	1.26516
3392.34483	1.26120
3390.41627	1.26099
3388.48770	1.26697
3386.55914	1.27623
3384.63057	1.28164
3382.70201	1.27929
3380.77344	1.27438
3378.84488	1.27514
3376.91632	1.28144
3374.98775	1.28587
3373.05919	1.28391
3371.13062	1.27908
3369.20206	1.27768
3367.27349	1.27957
3365.34493	1.28034
3363.41636	1.28114
3361.48780	1.28707
3359.55924	1.29600
3357.63067	1.29908
3355.70211	1.29631
3353.77354	1.29729
3351.84498	1.30435
3349.91641	1.30921
3347.98785	1.30789
3346.05928	1.30775
3344.13072	1.31338
3342.20216	1.32100
3340.27359	1.32858
3338.34503	1.33588
3336.41646	1.33696
3334.48790	1.32705
3332.55933	1.31572
3330.63077	1.31291
3328.70220	1.31490
3326.77364	1.31809
3324.84508	1.32392
3322.91651	1.32955
3320.98795	1.33082
3319.05938	1.33000
3317.13082	1.33317
3315.20225	1.33987
3313.27369	1.34379
3311.34513	1.34292
3309.41656	1.34008
3307.48800	1.33844
3305.55943	1.34082
3303.63087	1.34681
3301.70230	1.35149
3299.77374	1.35320
3297.84517	1.35264
3295.91661	1.34990
3293.98805	1.35168
3292.05948	1.35953
3290.13092	1.35986
3288.20235	1.34904
3286.27379	1.34044
3284.34522	1.33982
3282.41666	1.34114
3280.48809	1.33796
3278.55953	1.33239
3276.63097	1.33166
3274.70240	1.33483
3272.77384	1.33633
3270.84527	1.33568
3268.91671	1.33375
3266.98814	1.33248
3265.05958	1.33282
3263.13101	1.33288
3261.20245	1.33113
3259.27389	1.32518
3257.34532	1.31524
3255.41676	1.30580
3253.48819	1.30050
3251.55963	1.29798
3249.63106	1.29505
3247.70250	1.29199
3245.77393	1.28839
3243.84537	1.28383
3241.91681	1.27935
3239.98824	1.27297
3238.05968	1.26533
3236.13111	1.26247
3234.20255	1.26619
3232.27398	1.26879
3230.34542	1.26485
3228.41685	1.25818
3226.48829	1.25270
3224.55973	1.24960
3222.63116	1.24549
3220.70260	1.23744
3218.77403	1.23132
3216.84547	1.23080
3214.91690	1.23075
3212.98834	1.22818
3211.05977	1.22648
3209.13121	1.22703
3207.20265	1.22600
3205.27408	1.22015
3203.34552	1.21343
3201.41695	1.21236
3199.48839	1.21422
3197.55982	1.21204
3195.63126	1.20602
3193.70269	1.20004
3191.77413	1.19503
3189.84557	1.19071
3187.91700	1.18830
3185.98844	1.18617
3184.05987	1.18222
3182.13131	1.17887
3180.20274	1.17763
3178.27418	1.17844
3176.34562	1.17871
3174.41705	1.17435
3172.48849	1.16867
3170.55992	1.16624
3168.63136	1.16279
3166.70279	1.15376
3164.77423	1.14421
3162.84566	1.14170
3160.91710	1.14443
3158.98854	1.14414
3157.05997	1.14023
3155.13141	1.13791
3153.20284	1.13631
3151.27428	1.13324
3149.34571	1.13156
3147.41715	1.13233
3145.48858	1.13083
3143.56002	1.12387
3141.63146	1.11550
3139.70289	1.10983
3137.77433	1.10743
3135.84576	1.10853
3133.91720	1.11058
3131.98863	1.10987
3130.06007	1.10611
3128.13150	1.10072
3126.20294	1.09528
3124.27438	1.09121
3122.34581	1.08942
3120.41725	1.08979
3118.48868	1.09103
3116.56012	1.09175
3114.63155	1.09067
3112.70299	1.08747
3110.77442	1.08307
3108.84586	1.08006
3106.91730	1.07963
3104.98873	1.07928
3103.06017	1.07853
3101.13160	1.07893
3099.20304	1.07822
3097.27447	1.07503
3095.34591	1.07263
3093.41734	1.07231
3091.48878	1.07152
3089.56022	1.06880
3087.63165	1.06506
3085.70309	1.06194
3083.77452	1.06031
3081.84596	1.05934
3079.91739	1.05802
3077.98883	1.05645
3076.06026	1.05383
3074.13170	1.04923
3072.20314	1.04476
3070.27457	1.04202
3068.34601	1.03912
3066.41744	1.03602
3064.48888	1.03482
3062.56031	1.03363
3060.63175	1.03019
3058.70318	1.02606
3056.77462	1.02145
3054.84606	1.01632
3052.91749	1.01261
3050.98893	1.00848
3049.06036	1.00164
3047.13180	0.99485
3045.20323	0.99091
3043.27467	0.99027
3041.34610	0.99109
3039.41754	0.98894
3037.48898	0.98287
3035.56041	0.97689
3033.63185	0.97305
3031.70328	0.96924
3029.77472	0.96398
3027.84615	0.95850
3025.91759	0.95400
3023.98903	0.95177
3022.06046	0.95185
3020.13190	0.95060
3018.20333	0.94643
3016.27477	0.94173
3014.34620	0.93726
3012.41764	0.93247
3010.48907	0.92857
3008.56051	0.92682
3006.63195	0.92591
3004.70338	0.92428
3002.77482	0.92295
3000.84625	0.92325
2998.91769	0.92465
2996.98912	0.92628
2995.06056	0.92776
2993.13199	0.92935
2991.20343	0.93228
2989.27487	0.93723
2987.34630	0.94326
2985.41774	0.94913
2983.48917	0.95387
2981.56061	0.95721
2979.63204	0.96040
2977.70348	0.96469
2975.77491	0.97051
2973.84635	0.97895
2971.91779	0.98975
2969.98922	1.00016
2968.06066	1.00863
2966.13209	1.01464
2964.20353	1.01793
2962.27496	1.02011
2960.34640	1.02281
2958.41783	1.02459
2956.48927	1.02314
2954.56071	1.01893
2952.63214	1.01323
2950.70358	1.00777
2948.77501	1.00633
2946.84645	1.01005
2944.91788	1.01622
2942.98932	1.02347
2941.06075	1.03150
2939.13219	1.03864
2937.20363	1.04544
2935.27506	1.05358
2933.34650	1.06173
2931.41793	1.06755
2929.48937	1.07005
2927.56080	1.07104
2925.63224	1.07308
2923.70367	1.07516
2921.77511	1.07446
2919.84655	1.06999
2917.91798	1.06206
2915.98942	1.05031
2914.06085	1.03517
2912.13229	1.01968
2910.20372	1.00716
2908.27516	0.99791
2906.34659	0.99015
2904.41803	0.98299
2902.48947	0.97604
2900.56090	0.97001
2898.63234	0.96539
2896.70377	0.96113
2894.77521	0.95765
2892.84664	0.95491
2890.91808	0.95199
2888.98952	0.94987
2887.06095	0.94915
2885.13239	0.94917
2883.20382	0.94915
2881.27526	0.94859
2879.34669	0.94799
2877.41813	0.94784
2875.48956	0.94797
2873.56100	0.94685
2871.63244	0.94248
2869.70387	0.93547
2867.77531	0.92740
2865.84674	0.91992
2863.91818	0.91517
2861.98961	0.91286
2860.06105	0.91113
2858.13248	0.90963
2856.20392	0.90962
2854.27536	0.91155
2852.34679	0.91307
2850.41823	0.91046
2848.48966	0.90071
2846.56110	0.88455
2844.63253	0.86696
2842.70397	0.85241
2840.77540	0.84173
2838.84684	0.83296
2836.91828	0.82545
2834.98971	0.82013
2833.06115	0.81626
2831.13258	0.81243
2829.20402	0.80855
2827.27545	0.80521
2825.34689	0.80235
2823.41832	0.79916
2821.48976	0.79542
2819.56120	0.79160
2817.63263	0.78775
2815.70407	0.78337
2813.77550	0.77908
2811.84694	0.77608
2809.91837	0.77383
2807.98981	0.77145
2806.06124	0.76935
2804.13268	0.76732
2802.20412	0.76441
2800.27555	0.76070
2798.34699	0.75724
2796.41842	0.75466
2794.48986	0.75195
2792.56129	0.74820
2790.63273	0.74450
2788.70416	0.74193
2786.77560	0.73969
2784.84704	0.73682
2782.91847	0.73389
2780.98991	0.73141
2779.06134	0.72894
2777.13278	0.72641
2775.20421	0.72447
2773.27565	0.72336
2771.34708	0.72248
2769.41852	0.72161
2767.48996	0.72093
2765.56139	0.71972
2763.63283	0.71726
2761.70426	0.71437
2759.77570	0.71204
2757.84713	0.70977
2755.91857	0.70747
2753.99001	0.70597
2752.06144	0.70485
2750.13288	0.70261
2748.20431	0.69917
2746.27575	0.69633
2744.34718	0.69494
2742.41862	0.69397
2740.49005	0.69238
2738.56149	0.69029
2736.63293	0.68861
2734.70436	0.68737
2732.77580	0.68601
2730.84723	0.68473
2728.91867	0.68343
2726.99010	0.68160
2725.06154	0.67960
2723.13297	0.67810
2721.20441	0.67709
2719.27585	0.67611
2717.34728	0.67439
2715.41872	0.67175
2713.49015	0.66886
2711.56159	0.66632
2709.63302	0.66455
2707.70446	0.66324
2705.77589	0.66143
2703.84733	0.65926
2701.91877	0.65734
2699.99020	0.65554
2698.06164	0.65376
2696.13307	0.65220
2694.20451	0.65063
2692.27594	0.64900
2690.34738	0.64722
2688.41881	0.64503
2686.49025	0.64339
2684.56169	0.64275
2682.63312	0.64181
2680.70456	0.64021
2678.77599	0.63856
2676.84743	0.63654
2674.91886	0.63409
2672.99030	0.63194
2671.06173	0.63062
2669.13317	0.62989
2667.20461	0.62878
2665.27604	0.62698
2663.34748	0.62510
2661.41891	0.62329
2659.49035	0.62144
2657.56178	0.61948
2655.63322	0.61735
2653.70465	0.61553
2651.77609	0.61403
2649.84753	0.61224
2647.91896	0.61042
2645.99040	0.60925
2644.06183	0.60815
2642.13327	0.60633
2640.20470	0.60429
2638.27614	0.60233
2636.34757	0.60042
2634.41901	0.59898
2632.49045	0.59779
2630.56188	0.59634
2628.63332	0.59489
2626.70475	0.59376
2624.77619	0.59265
2622.84762	0.59118
2620.91906	0.58938
2618.99049	0.58705
2617.06193	0.58456
2615.13337	0.58315
2613.20480	0.58289
2611.27624	0.58241
2609.34767	0.58123
2607.41911	0.58023
2605.49054	0.57949
2603.56198	0.57811
2601.63342	0.57621
2599.70485	0.57460
2597.77629	0.57321
2595.84772	0.57153
2593.91916	0.56958
2591.99059	0.56759
2590.06203	0.56575
2588.13346	0.56413
2586.20490	0.56280
2584.27634	0.56169
2582.34777	0.56046
2580.41921	0.55880
2578.49064	0.55668
2576.56208	0.55474
2574.63351	0.55344
2572.70495	0.55220
2570.77638	0.55074
2568.84782	0.54955
2566.91926	0.54874
2564.99069	0.54800
2563.06213	0.54734
2561.13356	0.54662
2559.20500	0.54518
2557.27643	0.54340
2555.34787	0.54221
2553.41930	0.54137
2551.49074	0.54034
2549.56218	0.53921
2547.63361	0.53826
2545.70505	0.53745
2543.77648	0.53664
2541.84792	0.53564
2539.91935	0.53440
2537.99079	0.53313
2536.06222	0.53196
2534.13366	0.53088
2532.20510	0.52988
2530.27653	0.52895
2528.34797	0.52814
2526.41940	0.52730
2524.49084	0.52627
2522.56227	0.52514
2520.63371	0.52382
2518.70514	0.52224
2516.77658	0.52088
2514.84802	0.52016
2512.91945	0.51948
2510.99089	0.51807
2509.06232	0.51625
2507.13376	0.51454
2505.20519	0.51302
2503.27663	0.51201
2501.34806	0.51154
2499.41950	0.51072
2497.49094	0.50896
2495.56237	0.50681
2493.63381	0.50526
2491.70524	0.50456
2489.77668	0.50387
2487.84811	0.50255
2485.91955	0.50067
2483.99098	0.49871
2482.06242	0.49725
2480.13386	0.49635
2478.20529	0.49531
2476.27673	0.49363
2474.34816	0.49174
2472.41960	0.49021
2470.49103	0.48885
2468.56247	0.48710
2466.63391	0.48504
2464.70534	0.48336
2462.77678	0.48211
2460.84821	0.48069
2458.91965	0.47916
2456.99108	0.47779
2455.06252	0.47644
2453.13395	0.47519
2451.20539	0.47424
2449.27683	0.47328
2447.34826	0.47201
2445.41970	0.47056
2443.49113	0.46911
2441.56257	0.46761
2439.63400	0.46587
2437.70544	0.46400
2435.77687	0.46244
2433.84831	0.46122
2431.91975	0.45977
2429.99118	0.45786
2428.06262	0.45589
2426.13405	0.45432
2424.20549	0.45330
2422.27692	0.45240
2420.34836	0.45123
2418.41979	0.45001
2416.49123	0.44895
2414.56267	0.44797
2412.63410	0.44706
2410.70554	0.44633
2408.77697	0.44570
2406.84841	0.44470
2404.91984	0.44337
2402.99128	0.44207
2401.06271	0.44074
2399.13415	0.43940
2397.20559	0.43806
2395.27702	0.43650
2393.34846	0.43485
2391.41989	0.43340
2389.49133	0.43206
2387.56276	0.43057
2385.63420	0.42897
2383.70563	0.42748
2381.77707	0.42607
2379.84851	0.42479
2377.91994	0.42368
2375.99138	0.42223
2374.06281	0.42012
2372.13425	0.41785
2370.20568	0.41615
2368.27712	0.41556
2366.34855	0.41532
2364.41999	0.41323
2362.49143	0.40977
2360.56286	0.40851
2358.63430	0.40871
2356.70573	0.40852
2354.77717	0.40864
2352.84860	0.40798
2350.92004	0.40640
2348.99147	0.40469
2347.06291	0.40300
2345.13435	0.40133
2343.20578	0.39986
2341.27722	0.39877
2339.34865	0.39734
2337.42009	0.39575
2335.49152	0.39562
2333.56296	0.39653
2331.63440	0.39724
2329.70583	0.39778
2327.77727	0.39779
2325.84870	0.39672
2323.92014	0.39526
2321.99157	0.39478
2320.06301	0.39522
2318.13444	0.39504
2316.20588	0.39385
2314.27732	0.39230
2312.34875	0.39082
2310.42019	0.38968
2308.49162	0.38868
2306.56306	0.38758
2304.63449	0.38654
2302.70593	0.38565
2300.77736	0.38496
2298.84880	0.38449
2296.92024	0.38413
2294.99167	0.38401
2293.06311	0.38400
2291.13454	0.38372
2289.20598	0.38309
2287.27741	0.38238
2285.34885	0.38180
2283.42028	0.38136
2281.49172	0.38076
2279.56316	0.37992
2277.63459	0.37891
2275.70603	0.37772
2273.77746	0.37663
2271.84890	0.37580
2269.92033	0.37514
2267.99177	0.37454
2266.06320	0.37380
2264.13464	0.37293
2262.20608	0.37223
2260.27751	0.37163
2258.34895	0.37069
2256.42038	0.36954
2254.49182	0.36867
2252.56325	0.36812
2250.63469	0.36762
2248.70612	0.36695
2246.77756	0.36620
2244.84900	0.36546
2242.92043	0.36464
2240.99187	0.36377
2239.06330	0.36281
2237.13474	0.36168
2235.20617	0.36051
2233.27761	0.35949
2231.34904	0.35867
2229.42048	0.35799
2227.49192	0.35736
2225.56335	0.35664
2223.63479	0.35583
2221.70622	0.35519
2219.77766	0.35493
2217.84909	0.35484
2215.92053	0.35482
2213.99196	0.35486
2212.06340	0.35466
2210.13484	0.35419
2208.20627	0.35373
2206.27771	0.35313
2204.34914	0.35225
2202.42058	0.35137
2200.49201	0.35056
2198.56345	0.34969
2196.63488	0.34893
2194.70632	0.34840
2192.77776	0.34778
2190.84919	0.34686
2188.92063	0.34598
2186.99206	0.34554
2185.06350	0.34543
2183.13493	0.34539
2181.20637	0.34528
2179.27781	0.34494
2177.34924	0.34452
2175.42068	0.34440
2173.49211	0.34457
2171.56355	0.34472
2169.63498	0.34481
2167.70642	0.34486
2165.77785	0.34470
2163.84929	0.34426
2161.92073	0.34390
2159.99216	0.34366
2158.06360	0.34336
2156.13503	0.34300
2154.20647	0.34260
2152.27790	0.34216
2150.34934	0.34143
2148.42077	0.34035
2146.49221	0.33929
2144.56365	0.33848
2142.63508	0.33787
2140.70652	0.33730
2138.77795	0.33675
2136.84939	0.33634
2134.92082	0.33593
2132.99226	0.33540
2131.06369	0.33497
2129.13513	0.33481
2127.20657	0.33473
2125.27800	0.33453
2123.34944	0.33425
2121.42087	0.33388
2119.49231	0.33335
2117.56374	0.33293
2115.63518	0.33279
2113.70661	0.33256
2111.77805	0.33197
2109.84949	0.33112
2107.92092	0.33022
2105.99236	0.32955
2104.06379	0.32909
2102.13523	0.32866
2100.20666	0.32828
2098.27810	0.32787
2096.34953	0.32728
2094.42097	0.32684
2092.49241	0.32668
2090.56384	0.32641
2088.63528	0.32583
2086.70671	0.32528
2084.77815	0.32513
2082.84958	0.32524
2080.92102	0.32520
2078.99245	0.32483
2077.06389	0.32421
2075.13533	0.32360
2073.20676	0.32317
2071.27820	0.32260
2069.34963	0.32177
2067.42107	0.32096
2065.49250	0.32025
2063.56394	0.31939
2061.63537	0.31835
2059.70681	0.31754
2057.77825	0.31707
2055.84968	0.31654
2053.92112	0.31594
2051.99255	0.31545
2050.06399	0.31505
2048.13542	0.31474
2046.20686	0.31451
2044.27830	0.31431
2042.34973	0.31413
2040.42117	0.31401
2038.49260	0.31391
2036.56404	0.31366
2034.63547	0.31305
2032.70691	0.31214
2030.77834	0.31124
2028.84978	0.31049
2026.92122	0.30978
2024.99265	0.30889
2023.06409	0.30797
2021.13552	0.30714
2019.20696	0.30615
2017.27839	0.30512
2015.34983	0.30443
2013.42126	0.30390
2011.49270	0.30331
2009.56414	0.30286
2007.63557	0.30267
2005.70701	0.30235
2003.77844	0.30172
2001.84988	0.30105
1999.92131	0.30060
1997.99275	0.30027
1996.06418	0.29993
1994.13562	0.29977
1992.20706	0.29966
1990.27849	0.29914
1988.34993	0.29827
1986.42136	0.29744
1984.49280	0.29684
1982.56423	0.29641
1980.63567	0.29587
1978.70710	0.29516
1976.77854	0.29456
1974.84998	0.29414
1972.92141	0.29376
1970.99285	0.29331
1969.06428	0.29290
1967.13572	0.29275
1965.20715	0.29272
1963.27859	0.29266
1961.35002	0.29261
1959.42146	0.29250
1957.49290	0.29241
1955.56433	0.29246
1953.63577	0.29237
1951.70720	0.29191
1949.77864	0.29137
1947.85007	0.29082
1945.92151	0.29010
1943.99294	0.28934
1942.06438	0.28872
1940.13582	0.28804
1938.20725	0.28720
1936.27869	0.28643
1934.35012	0.28593
1932.42156	0.28549
1930.49299	0.28497
1928.56443	0.28464
1926.63586	0.28461
1924.70730	0.28480
1922.77874	0.28521
1920.85017	0.28559
1918.92161	0.28602
1916.99304	0.28637
1915.06448	0.28610
1913.13591	0.28567
1911.20735	0.28557
1909.27878	0.28556
1907.35022	0.28521
1905.42166	0.28457
1903.49309	0.28401
1901.56453	0.28359
1899.63596	0.28314
1897.70740	0.28271
1895.77883	0.28266
1893.85027	0.28276
1891.92171	0.28245
1889.99314	0.28229
1888.06458	0.28265
1886.13601	0.28284
1884.20745	0.28267
1882.27888	0.28256
1880.35032	0.28263
1878.42175	0.28260
1876.49319	0.28238
1874.56463	0.28199
1872.63606	0.28141
1870.70750	0.28096
1868.77893	0.28128
1866.85037	0.28157
1864.92180	0.28082
1862.99324	0.27963
1861.06467	0.27866
1859.13611	0.27809
1857.20755	0.27775
1855.27898	0.27746
1853.35042	0.27716
1851.42185	0.27696
1849.49329	0.27687
1847.56472	0.27682
1845.63616	0.27736
1843.70759	0.27889
1841.77903	0.27983
1839.85047	0.27987
1837.92190	0.28001
1835.99334	0.28050
1834.06477	0.28080
1832.13621	0.28097
1830.20764	0.28152
1828.27908	0.28188
1826.35051	0.28176
1824.42195	0.28190
1822.49339	0.28201
1820.56482	0.28181
1818.63626	0.28178
1816.70769	0.28205
1814.77913	0.28252
1812.85056	0.28324
1810.92200	0.28448
1808.99343	0.28598
1807.06487	0.28709
1805.13631	0.28785
1803.20774	0.28886
1801.27918	0.29093
1799.35061	0.29337
1797.42205	0.29476
1795.49348	0.29523
1793.56492	0.29596
1791.63635	0.29769
1789.70779	0.29865
1787.77923	0.29878
1785.85066	0.29933
1783.92210	0.30036
1781.99353	0.30180
1780.06497	0.30399
1778.13640	0.30618
1776.20784	0.30779
1774.27927	0.31014
1772.35071	0.31462
1770.42215	0.31900
1768.49358	0.32217
1766.56502	0.32526
1764.63645	0.32811
1762.70789	0.33191
1760.77932	0.33700
1758.85076	0.34174
1756.92220	0.34719
1754.99363	0.35262
1753.06507	0.35746
1751.13650	0.36479
1749.20794	0.37538
1747.27937	0.38456
1745.35081	0.39172
1743.42224	0.39857
1741.49368	0.40575
1739.56512	0.41318
1737.63655	0.41867
1735.70799	0.42364
1733.77942	0.43351
1731.85086	0.44325
1729.92229	0.44995
1727.99373	0.45663
1726.06516	0.46333
1724.13660	0.47146
1722.20804	0.47982
1720.27947	0.48706
1718.35091	0.49797
1716.42234	0.51639
1714.49378	0.53091
1712.56521	0.54143
1710.63665	0.55255
1708.70808	0.56549
1706.77952	0.58432
1704.85096	0.60888
1702.92239	0.63100
1700.99383	0.66268
1699.06526	0.71481
1697.13670	0.76726
1695.20813	0.82086
1693.27957	0.86042
1691.35100	0.89215
1689.42244	0.93212
1687.49388	0.97012
1685.56531	1.00743
1683.63675	1.06550
1681.70818	1.10856
1679.77962	1.13101
1677.85105	1.14980
1675.92249	1.17085
1673.99392	1.19235
1672.06536	1.20778
1670.13680	1.22111
1668.20823	1.23464
1666.27967	1.24232
1664.35110	1.24905
1662.42254	1.25914
1660.49397	1.26783
1658.56541	1.27176
1656.63684	1.27129
1654.70828	1.27028
1652.77972	1.27319
1650.85115	1.27443
1648.92259	1.27307
1646.99402	1.26949
1645.06546	1.26446
1643.13689	1.25901
1641.20833	1.25349
1639.27976	1.24703
1637.35120	1.24006
1635.42264	1.23303
1633.49407	1.22613
1631.56551	1.22017
1629.63694	1.21304
1627.70838	1.20341
1625.77981	1.19183
1623.85125	1.17856
1621.92269	1.16426
1619.99412	1.15059
1618.06556	1.13218
1616.13699	1.10655
1614.20843	1.08788
1612.27986	1.07332
1610.35130	1.05688
1608.42273	1.04023
1606.49417	1.02621
1604.56561	1.01552
1602.63704	1.00778
1600.70848	1.00285
1598.77991	0.99997
1596.85135	0.99861
1594.92278	0.99851
1592.99422	0.99946
1591.06565	1.00125
1589.13709	1.00377
1587.20853	1.00794
1585.27996	1.01392
1583.35140	1.02157
1581.42283	1.03074
1579.49427	1.04012
1577.56570	1.05131
1575.63714	1.06600
1573.70857	1.07594
1571.78001	1.08416
1569.85145	1.09828
1567.92288	1.11277
1565.99432	1.12254
1564.06575	1.13171
1562.13719	1.13876
1560.20862	1.14762
1558.28006	1.16865
1556.35149	1.17863
1554.42293	1.18121
1552.49437	1.18198
1550.56580	1.18002
1548.63724	1.17620
1546.70867	1.17207
1544.78011	1.16728
1542.85154	1.16179
1540.92298	1.15319
1538.99441	1.14099
1537.06585	1.13449
1535.13729	1.12805
1533.20872	1.11744
1531.28016	1.10677
1529.35159	1.09823
1527.42303	1.08900
1525.49446	1.08079
1523.56590	1.07591
1521.63733	1.07019
1519.70877	1.06338
1517.78021	1.05413
1515.85164	1.03916
1513.92308	1.02316
1511.99451	1.00810
1510.06595	0.99252
1508.13738	0.96756
1506.20882	0.93184
1504.28025	0.91607
1502.35169	0.90552
1500.42313	0.89252
1498.49456	0.87678
1496.56600	0.85833
1494.63743	0.84275
1492.70887	0.83148
1490.78030	0.81964
1488.85174	0.80695
1486.92317	0.79983
1484.99461	0.79671
1483.06605	0.79609
1481.13748	0.79872
1479.20892	0.80442
1477.28035	0.81331
1475.35179	0.82692
1473.42322	0.84950
1471.49466	0.87495
1469.56610	0.88896
1467.63753	0.89826
1465.70897	0.90984
1463.78040	0.92168
1461.85184	0.92883
1459.92327	0.93419
1457.99471	0.94268
1456.06614	0.94982
1454.13758	0.94938
1452.20902	0.94663
1450.28045	0.94374
1448.35189	0.94048
1446.42332	0.93596
1444.49476	0.93109
1442.56619	0.92657
1440.63763	0.92262
1438.70906	0.91910
1436.78050	0.91581
1434.85194	0.91312
1432.92337	0.91183
1430.99481	0.91334
1429.06624	0.91751
1427.13768	0.92178
1425.20911	0.92685
1423.28055	0.93394
1421.35198	0.94118
1419.42342	0.94970
1417.49486	0.95855
1415.56629	0.96250
1413.63773	0.96333
1411.70916	0.96316
1409.78060	0.96290
1407.85203	0.96215
1405.92347	0.96016
1403.99490	0.95721
1402.06634	0.95464
1400.13778	0.95253
1398.20921	0.94994
1396.28065	0.94636
1394.35208	0.94238
1392.42352	0.94073
1390.49495	0.94250
1388.56639	0.94777
1386.63782	0.95609
1384.70926	0.96389
1382.78070	0.96974
1380.85213	0.97380
1378.92357	0.97549
1376.99500	0.97394
1375.06644	0.96806
1373.13787	0.95808
1371.20931	0.94684
1369.28074	0.93434
1367.35218	0.92041
1365.42362	0.90717
1363.49505	0.89460
1361.56649	0.88378
1359.63792	0.87691
1357.70936	0.87291
1355.78079	0.87128
1353.85223	0.87194
1351.92366	0.87337
1349.99510	0.87433
1348.06654	0.87520
1346.13797	0.87660
1344.20941	0.87837
1342.28084	0.87986
1340.35228	0.88085
1338.42371	0.88174
1336.49515	0.88306
1334.56659	0.88523
1332.63802	0.88815
1330.70946	0.89109
1328.78089	0.89302
1326.85233	0.89348
1324.92376	0.89288
1322.99520	0.89196
1321.06663	0.89190
1319.13807	0.89360
1317.20951	0.89626
1315.28094	0.89912
1313.35238	0.90281
1311.42381	0.90716
1309.49525	0.91158
1307.56668	0.91586
1305.63812	0.91939
1303.70955	0.92184
1301.78099	0.92302
1299.85243	0.92194
1297.92386	0.91782
1295.99530	0.91142
1294.06673	0.90409
1292.13817	0.89658
1290.20960	0.88909
1288.28104	0.88123
1286.35247	0.87298
1284.42391	0.86526
1282.49535	0.85872
1280.56678	0.85339
1278.63822	0.84916
1276.70965	0.84654
1274.78109	0.84670
1272.85252	0.84986
1270.92396	0.85508
1268.99539	0.86180
1267.06683	0.86996
1265.13827	0.87875
1263.20970	0.88686
1261.28114	0.89329
1259.35257	0.89776
1257.42401	0.90052
1255.49544	0.90150
1253.56688	0.90127
1251.63831	0.90102
1249.70975	0.90014
1247.78119	0.89786
1245.85262	0.89479
1243.92406	0.89118
1241.99549	0.88731
1240.06693	0.88407
1238.13836	0.88206
1236.20980	0.88092
1234.28123	0.87974
1232.35267	0.87796
1230.42411	0.87541
1228.49554	0.87303
1226.56698	0.87128
1224.63841	0.86934
1222.70985	0.86742
1220.78128	0.86532
1218.85272	0.86157
1216.92415	0.85650
1214.99559	0.85172
1213.06703	0.84713
1211.13846	0.84225
1209.20990	0.83755
1207.28133	0.83229
1205.35277	0.82489
1203.42420	0.81504
1201.49564	0.80322
1199.56708	0.78984
1197.63851	0.77626
1195.70995	0.76451
1193.78138	0.75482
1191.85282	0.74657
1189.92425	0.74032
1187.99569	0.73666
1186.06712	0.73519
1184.13856	0.73566
1182.21000	0.73821
1180.28143	0.74282
1178.35287	0.74944
1176.42430	0.75796
1174.49574	0.76739
1172.56717	0.77665
1170.63861	0.78602
1168.71004	0.79679
1166.78148	0.81037
1164.85292	0.82794
1162.92435	0.84857
1160.99579	0.86837
1159.06722	0.88396
1157.13866	0.89498
1155.21009	0.90244
1153.28153	0.90685
1151.35296	0.90822
1149.42440	0.90661
1147.49584	0.90236
1145.56727	0.89677
1143.63871	0.89225
1141.71014	0.89020
1139.78158	0.89017
1137.85301	0.89175
1135.92445	0.89497
1133.99588	0.89974
1132.06732	0.90646
1130.13876	0.91531
1128.21019	0.92547
1126.28163	0.93611
1124.35306	0.94665
1122.42450	0.95681
1120.49593	0.96670
1118.56737	0.97684
1116.63880	0.98769
1114.71024	0.99729
1112.78168	1.00363
1110.85311	1.00831
1108.92455	1.01347
1106.99598	1.01934
1105.06742	1.02454
1103.13885	1.02733
1101.21029	1.02788
1099.28172	1.02730
1097.35316	1.02645
1095.42460	1.02732
1093.49603	1.03180
1091.56747	1.03937
1089.63890	1.04886
1087.71034	1.06000
1085.78177	1.07196
1083.85321	1.08306
1081.92464	1.09139
1079.99608	1.09634
1078.06752	1.09896
1076.13895	1.09871
1074.21039	1.09437
1072.28182	1.08820
1070.35326	1.08299
1068.42469	1.07917
1066.49613	1.07723
1064.56756	1.07807
1062.63900	1.08129
1060.71044	1.08562
1058.78187	1.08914
1056.85331	1.09014
1054.92474	1.08917
1052.99618	1.08784
1051.06761	1.08641
1049.13905	1.08494
1047.21049	1.08428
1045.28192	1.08354
1043.35336	1.08118
1041.42479	1.07915
1039.49623	1.07996
1037.56766	1.08239
1035.63910	1.08346
1033.71053	1.08175
1031.78197	1.07822
1029.85341	1.07417
1027.92484	1.06968
1025.99628	1.06442
1024.06771	1.05692
1022.13915	1.04684
1020.21058	1.03706
1018.28202	1.02927
1016.35345	1.02236
1014.42489	1.01451
1012.49633	1.00374
1010.56776	0.98899
1008.63920	0.97086
1006.71063	0.95099
1004.78207	0.92959
1002.85350	0.90647
1000.92494	0.88380
998.99637	0.86363
997.06781	0.84587
995.13925	0.82948
993.21068	0.81303
991.28212	0.79509
989.35355	0.77526
987.42499	0.75444
985.49642	0.73396
983.56786	0.71533
981.63929	0.69980
979.71073	0.68742
977.78217	0.67682
975.85360	0.66648
973.92504	0.65509
971.99647	0.64147
970.06791	0.62576
968.13934	0.60891
966.21078	0.59133
964.28221	0.57396
962.35365	0.55900
960.42509	0.54829
958.49652	0.54247
956.56796	0.54035
954.63939	0.53837
952.71083	0.53311
950.78226	0.52440
948.85370	0.51462
946.92513	0.50616
944.99657	0.50014
943.06801	0.49644
941.13944	0.49446
939.21088	0.49361
937.28231	0.49319
935.35375	0.49255
933.42518	0.49146
931.49662	0.48998
929.56805	0.48827
927.63949	0.48644
925.71093	0.48461
923.78236	0.48270
921.85380	0.48010
919.92523	0.47647
917.99667	0.47210
916.06810	0.46736
914.13954	0.46265
912.21098	0.45879
910.28241	0.45649
908.35385	0.45570
906.42528	0.45629
904.49672	0.45830
902.56815	0.46102
900.63959	0.46302
898.71102	0.46305
896.78246	0.46107
894.85390	0.45766
892.92533	0.45290
890.99677	0.44691
889.06820	0.44036
887.13964	0.43376
885.21107	0.42761
883.28251	0.42232
881.35394	0.41807
879.42538	0.41519
877.49682	0.41367
875.56825	0.41319
873.63969	0.41363
871.71112	0.41464
869.78256	0.41562
867.85399	0.41644
865.92543	0.41761
863.99686	0.41952
862.06830	0.42171
860.13974	0.42362
858.21117	0.42558
856.28261	0.42792
854.35404	0.43054
852.42548	0.43344
850.49691	0.43621
848.56835	0.43792
846.63978	0.43833
844.71122	0.43814
842.78266	0.43802
840.85409	0.43790
838.92553	0.43744
836.99696	0.43665
835.06840	0.43561
833.13983	0.43450
831.21127	0.43353
829.28270	0.43252
827.35414	0.43151
825.42558	0.43056
823.49701	0.42967
821.56845	0.42910
819.63988	0.42841
817.71132	0.42771
815.78275	0.42802
813.85419	0.42948
811.92562	0.43142
809.99706	0.43310
808.06850	0.43433
806.13993	0.43567
804.21137	0.43763
802.28280	0.44043
800.35424	0.44361
798.42567	0.44711
796.49711	0.45100
794.56854	0.45450
792.63998	0.45796
790.71142	0.46231
788.78285	0.46654
786.85429	0.47029
784.92572	0.47474
782.99716	0.47986
781.06859	0.48517
779.14003	0.49078
777.21147	0.49662
775.28290	0.50245
773.35434	0.50735
771.42577	0.51047
769.49721	0.51236
767.56864	0.51396
765.64008	0.51545
763.71151	0.51698
761.78295	0.51876
759.85439	0.52074
757.92582	0.52330
755.99726	0.52622
754.06869	0.52898
752.14013	0.53233
750.21156	0.53635
748.28300	0.53940
746.35443	0.54094
744.42587	0.54203
742.49731	0.54330
740.56874	0.54451
738.64018	0.54530
736.71161	0.54633
734.78305	0.54876
732.85448	0.55270
730.92592	0.55782
728.99735	0.56356
727.06879	0.56915
725.14023	0.57450
723.21166	0.58010
721.28310	0.58648
719.35453	0.59348
717.42597	0.60021
715.49740	0.60611
713.56884	0.61104
711.64027	0.61558
709.71171	0.62022
707.78315	0.62396
705.85458	0.62570
703.92602	0.62554
701.99745	0.62389
700.06889	0.62162
698.14032	0.61970
696.21176	0.61813
694.28319	0.61701
692.35463	0.61718
690.42607	0.61864
688.49750	0.62057
686.56894	0.62280
684.64037	0.62554
682.71181	0.62953
680.78324	0.63579
678.85468	0.64343
676.92611	0.65039
674.99755	0.65532
673.06899	0.65749
671.14042	0.65788
669.21186	0.65997
667.28329	0.66365
665.35473	0.66312
663.42616	0.66089
661.49760	0.65965
659.56903	0.66000
657.64047	0.66164
655.71191	0.66443
653.78334	0.66756
651.85478	0.67024
649.92621	0.67364
647.99765	0.67902
646.06908	0.68579
644.14052	0.69330
642.21195	0.70101
640.28339	0.70874
638.35483	0.71699
636.42626	0.72431
634.49770	0.72864
632.56913	0.73011
630.64057	0.72898
628.71200	0.72586
626.78344	0.72227
624.85488	0.71818
622.92631	0.71331
620.99775	0.70803
619.06918	0.70272
617.14062	0.69866
615.21205	0.69717
613.28349	0.69852
611.35492	0.70205
609.42636	0.70670
607.49780	0.71281
605.56923	0.72087
603.64067	0.72965
601.71210	0.73808
599.78354	0.74610
