3997.91406	0.48604
3995.98550	0.48591
3994.05693	0.48637
3992.12837	0.48689
3990.19980	0.48724
3988.27124	0.48707
3986.34268	0.48627
3984.41411	0.48500
3982.48555	0.48396
3980.55698	0.48440
3978.62842	0.48588
3976.69985	0.48685
3974.77129	0.48663
3972.84272	0.48560
3970.91416	0.48522
3968.98560	0.48663
3967.05703	0.48903
3965.12847	0.49068
3963.19990	0.49085
3961.27134	0.49009
3959.34277	0.48903
3957.41421	0.48777
3955.48564	0.48630
3953.55708	0.48440
3951.62852	0.48290
3949.69995	0.48421
3947.77139	0.48663
3945.84282	0.48591
3943.91426	0.48407
3941.98569	0.48397
3940.05713	0.48375
3938.12856	0.48253
3936.20000	0.48144
3934.27144	0.48107
3932.34287	0.48143
3930.41431	0.48170
3928.48574	0.48074
3926.55718	0.48008
3924.62861	0.48144
3922.70005	0.48199
3920.77148	0.48033
3918.84292	0.47946
3916.91436	0.48063
3914.98579	0.48159
3913.05723	0.48152
3911.12866	0.48152
3909.20010	0.48097
3907.27153	0.47982
3905.34297	0.48060
3903.41440	0.48340
3901.48584	0.48606
3899.55728	0.48831
3897.62871	0.48710
3895.70015	0.48337
3893.77158	0.48151
3891.84302	0.48237
3889.91445	0.48117
3887.98589	0.47790
3886.05733	0.47693
3884.12876	0.47765
3882.20020	0.47640
3880.27163	0.47488
3878.34307	0.47340
3876.41450	0.47148
3874.48594	0.47036
3872.55737	0.46932
3870.62881	0.46779
3868.70025	0.46636
3866.77168	0.46480
3864.84312	0.46442
3862.91455	0.46447
3860.98599	0.46263
3859.05742	0.46070
3857.12886	0.46063
3855.20029	0.46421
3853.27173	0.47156
3851.34317	0.47138
3849.41460	0.46679
3847.48604	0.46353
3845.55747	0.46241
3843.62891	0.46341
3841.70034	0.46518
3839.77178	0.46580
3837.84321	0.46687
3835.91465	0.46871
3833.98609	0.46939
3832.05752	0.46898
3830.12896	0.46781
3828.20039	0.46771
3826.27183	0.46908
3824.34326	0.46866
3822.41470	0.46741
3820.48613	0.46790
3818.55757	0.46666
3816.62901	0.46481
3814.70044	0.46383
3812.77188	0.46196
3810.84331	0.45951
3808.91475	0.45831
3806.98618	0.45909
3805.05762	0.45904
3803.12905	0.45901
3801.20049	0.46095
3799.27193	0.46097
3797.34336	0.45971
3795.41480	0.45820
3793.48623	0.45597
3791.55767	0.45449
3789.62910	0.45403
3787.70054	0.45338
3785.77197	0.45327
3783.84341	0.45427
3781.91485	0.45523
3779.98628	0.45636
3778.05772	0.45722
3776.12915	0.45726
3774.20059	0.45680
3772.27202	0.45620
3770.34346	0.45723
3768.41489	0.45888
3766.48633	0.45901
3764.55777	0.45916
3762.62920	0.45922
3760.70064	0.45923
3758.77207	0.46014
3756.84351	0.46021
3754.91494	0.45840
3752.98638	0.45611
3751.05781	0.45651
3749.12925	0.45789
3747.20069	0.45767
3745.27212	0.45863
3743.34356	0.45799
3741.41499	0.45439
3739.48643	0.45086
3737.55786	0.44950
3735.62930	0.45266
3733.70074	0.45605
3731.77217	0.45469
3729.84361	0.45198
3727.91504	0.45140
3725.98648	0.45304
3724.05791	0.45258
3722.12935	0.45077
3720.20078	0.45109
3718.27222	0.45060
3716.34366	0.44745
3714.41509	0.44481
3712.48653	0.44740
3710.55796	0.45428
3708.62940	0.45697
3706.70083	0.45652
3704.77227	0.45582
3702.84370	0.45629
3700.91514	0.45692
3698.98658	0.45589
3697.05801	0.45483
3695.12945	0.45468
3693.20088	0.45510
3691.27232	0.45759
3689.34375	0.46302
3687.41519	0.46534
3685.48662	0.46417
3683.55806	0.46275
3681.62950	0.46268
3679.70093	0.46429
3677.77237	0.46768
3675.84380	0.47400
3673.91524	0.47664
3671.98667	0.47641
3670.05811	0.48156
3668.12954	0.48571
3666.20098	0.48515
3664.27242	0.48638
3662.34385	0.49077
3660.41529	0.49519
3658.48672	0.49881
3656.55816	0.50418
3654.62959	0.50788
3652.70103	0.50746
3650.77246	0.50936
3648.84390	0.52197
3646.91534	0.53288
3644.98677	0.53643
3643.05821	0.53891
3641.12964	0.54279
3639.20108	0.54804
3637.27251	0.55401
3635.34395	0.55989
3633.41538	0.56502
3631.48682	0.56991
3629.55826	0.57873
3627.62969	0.58835
3625.70113	0.59147
3623.77256	0.59324
3621.84400	0.59681
3619.91543	0.60468
3617.98687	0.61374
3616.05830	0.61851
3614.12974	0.62289
3612.20118	0.62860
3610.27261	0.63442
3608.34405	0.64185
3606.41548	0.64896
3604.48692	0.65384
3602.55835	0.65979
3600.62979	0.66729
3598.70123	0.67261
3596.77266	0.67613
3594.84410	0.68162
3592.91553	0.68825
3590.98697	0.69309
3589.05840	0.70012
3587.12984	0.71279
3585.20127	0.72028
3583.27271	0.72142
3581.34415	0.72348
3579.41558	0.72806
3577.48702	0.73419
3575.55845	0.74164
3573.62989	0.74772
3571.70132	0.75085
3569.77276	0.75384
3567.84419	0.76110
3565.91563	0.77131
3563.98707	0.77754
3562.05850	0.78202
3560.12994	0.78787
3558.20137	0.79555
3556.27281	0.80352
3554.34424	0.80966
3552.41568	0.81342
3550.48711	0.81739
3548.55855	0.82456
3546.62999	0.83311
3544.70142	0.84029
3542.77286	0.84780
3540.84429	0.85457
3538.91573	0.85938
3536.98716	0.86525
3535.05860	0.87258
3533.13003	0.87884
3531.20147	0.88426
3529.27291	0.88919
3527.34434	0.89380
3525.41578	0.90036
3523.48721	0.90949
3521.55865	0.91617
3519.63008	0.91862
3517.70152	0.92294
3515.77295	0.93135
3513.84439	0.94103
3511.91583	0.95095
3509.98726	0.96053
3508.05870	0.96908
3506.13013	0.97724
3504.20157	0.98446
3502.27300	0.98950
3500.34444	0.99644
3498.41587	1.00785
3496.48731	1.01967
3494.55875	1.02673
3492.63018	1.02891
3490.70162	1.03195
3488.77305	1.03927
3486.84449	1.04757
3484.91592	1.05366
3482.98736	1.05959
3481.05879	1.06645
3479.13023	1.07070
3477.20167	1.07116
3475.27310	1.07123
3473.34454	1.07554
3471.41597	1.08328
3469.48741	1.08944
3467.55884	1.09269
3465.63028	1.09460
3463.70171	1.09753
3461.77315	1.10214
3459.84459	1.10637
3457.91602	1.10767
3455.98746	1.10752
3454.05889	1.11127
3452.13033	1.11800
3450.20176	1.12251
3448.27320	1.12502
3446.34464	1.12870
3444.41607	1.13154
3442.48751	1.12933
3440.55894	1.12644
3438.63038	1.12889
3436.70181	1.13420
3434.77325	1.13813
3432.84468	1.14086
3430.91612	1.14352
3428.98756	1.14443
3427.05899	1.14315
3425.13043	1.14216
3423.20186	1.14279
3421.27330	1.14520
3419.34473	1.14725
3417.41617	1.14559
3415.48760	1.14218
3413.55904	1.14189
3411.63048	1.14469
3409.70191	1.14790
3407.77335	1.15127
3405.84478	1.15362
3403.91622	1.15465
3401.98765	1.15725
3400.05909	1.16038
3398.13052	1.16005
3396.20196	1.15785
3394.27340	1.15752
3392.34483	1.15774
3390.41627	1.15684
3388.48770	1.15629
3386.55914	1.15637
3384.63057	1.15778
3382.70201	1.16328
3380.77344	1.17012
3378.84488	1.17077
3376.91632	1.16738
3374.98775	1.16878
3373.05919	1.17405
3371.13062	1.17765
3369.20206	1.17919
3367.27349	1.17937
3365.34493	1.18090
3363.41636	1.18600
3361.48780	1.19051
3359.55924	1.19400
3357.63067	1.19930
3355.70211	1.20083
3353.77354	1.19581
3351.84498	1.19089
3349.91641	1.19043
3347.98785	1.19424
3346.05928	1.19900
3344.13072	1.20072
3342.20216	1.20155
3340.27359	1.20488
3338.34503	1.20792
3336.41646	1.21017
3334.48790	1.21575
3332.55933	1.22303
3330.63077	1.22590
3328.70220	1.22479
3326.77364	1.22589
3324.84508	1.22981
3322.91651	1.23328
3320.98795	1.23625
3319.05938	1.23945
3317.13082	1.24240
3315.20225	1.24465
3313.27369	1.24700
3311.34513	1.24808
3309.41656	1.24539
3307.48800	1.24292
3305.55943	1.24709
3303.63087	1.25748
3301.70230	1.26684
3299.77374	1.26917
3297.84517	1.26759
3295.91661	1.26972
3293.98805	1.27345
3292.05948	1.27018
3290.13092	1.26390
3288.20235	1.26283
3286.27379	1.26245
3284.34522	1.25805
3282.41666	1.25376
3280.48809	1.25116
3278.55953	1.24841
3276.63097	1.24674
3274.70240	1.24691
3272.77384	1.24652
3270.84527	1.24458
3268.91671	1.24256
3266.98814	1.23948
3265.05958	1.23438
3263.13101	1.23148
3261.20245	1.23118
3259.27389	1.22662
3257.34532	1.21879
3255.41676	1.21476
3253.48819	1.21239
3251.55963	1.20796
3249.63106	1.20352
3247.70250	1.19874
3245.77393	1.19201
3243.84537	1.18479
3241.91681	1.17967
3239.98824	1.17600
3238.05968	1.17024
3236.13111	1.16436
3234.20255	1.16160
3232.27398	1.15831
3230.34542	1.15394
3228.41685	1.15165
3226.48829	1.14829
3224.55973	1.14240
3222.63116	1.13838
3220.70260	1.13648
3218.77403	1.13346
3216.84547	1.12973
3214.91690	1.12662
3212.98834	1.12421
3211.05977	1.12236
3209.13121	1.11861
3207.20265	1.11206
3205.27408	1.10574
3203.34552	1.10004
3201.41695	1.09358
3199.48839	1.08821
3197.55982	1.08597
3195.63126	1.08431
3193.70269	1.08024
3191.77413	1.07598
3189.84557	1.07379
3187.91700	1.07107
3185.98844	1.06634
3184.05987	1.06135
3182.13131	1.05652
3180.20274	1.05196
3178.27418	1.04879
3176.34562	1.04712
3174.41705	1.04472
3172.48849	1.03951
3170.55992	1.03405
3168.63136	1.03182
3166.70279	1.03060
3164.77423	1.02657
3162.84566	1.02126
3160.91710	1.01780
3158.98854	1.01580
3157.05997	1.01456
3155.13141	1.01391
3153.20284	1.01249
3151.27428	1.01011
3149.34571	1.00822
3147.41715	1.00701
3145.48858	1.00498
3143.56002	1.00251
3141.63146	1.00153
3139.70289	1.00091
3137.77433	0.99790
3135.84576	0.99446
3133.91720	0.99387
3131.98863	0.99500
3130.06007	0.99599
3128.13150	0.99617
3126.20294	0.99517
3124.27438	0.99461
3122.34581	0.99497
3120.41725	0.99498
3118.48868	0.99483
3116.56012	0.99515
3114.63155	0.99539
3112.70299	0.99481
3110.77442	0.99319
3108.84586	0.99144
3106.91730	0.99071
3104.98873	0.99038
3103.06017	0.99014
3101.13160	0.99069
3099.20304	0.99063
3097.27447	0.98870
3095.34591	0.98675
3093.41734	0.98618
3091.48878	0.98509
3089.56022	0.98268
3087.63165	0.98056
3085.70309	0.97904
3083.77452	0.97625
3081.84596	0.97137
3079.91739	0.96806
3077.98883	0.96927
3076.06026	0.97083
3074.13170	0.96830
3072.20314	0.96344
3070.27457	0.95970
3068.34601	0.95757
3066.41744	0.95614
3064.48888	0.95510
3062.56031	0.95314
3060.63175	0.94909
3058.70318	0.94437
3056.77462	0.94140
3054.84606	0.94022
3052.91749	0.93815
3050.98893	0.93449
3049.06036	0.93120
3047.13180	0.92805
3045.20323	0.92414
3043.27467	0.92016
3041.34610	0.91656
3039.41754	0.91405
3037.48898	0.91265
3035.56041	0.91111
3033.63185	0.90894
3031.70328	0.90678
3029.77472	0.90450
3027.84615	0.90109
3025.91759	0.89740
3023.98903	0.89494
3022.06046	0.89367
3020.13190	0.89304
3018.20333	0.89229
3016.27477	0.89073
3014.34620	0.88842
3012.41764	0.88589
3010.48907	0.88298
3008.56051	0.87971
3006.63195	0.87714
3004.70338	0.87575
3002.77482	0.87501
3000.84625	0.87388
2998.91769	0.87211
2996.98912	0.87132
2995.06056	0.87279
2993.13199	0.87543
2991.20343	0.87766
2989.27487	0.87985
2987.34630	0.88318
2985.41774	0.88836
2983.48917	0.89523
2981.56061	0.90291
2979.63204	0.91075
2977.70348	0.91757
2975.77491	0.92236
2973.84635	0.92662
2971.91779	0.93363
2969.98922	0.94349
2968.06066	0.95186
2966.13209	0.95763
2964.20353	0.96309
2962.27496	0.96716
2960.34640	0.96827
2958.41783	0.96636
2956.48927	0.96174
2954.56071	0.95638
2952.63214	0.95109
2950.70358	0.94615
2948.77501	0.94391
2946.84645	0.94492
2944.91788	0.94807
2942.98932	0.95374
2941.06075	0.96139
2939.13219	0.96955
2937.20363	0.97845
2935.27506	0.98840
2933.34650	0.99772
2931.41793	1.00474
2929.48937	1.00978
2927.56080	1.01470
2925.63224	1.02013
2923.70367	1.02357
2921.77511	1.02402
2919.84655	1.02290
2917.91798	1.01748
2915.98942	1.00418
2914.06085	0.98580
2912.13229	0.96790
2910.20372	0.95247
2908.27516	0.93862
2906.34659	0.92726
2904.41803	0.92004
2902.48947	0.91516
2900.56090	0.90981
2898.63234	0.90469
2896.70377	0.90238
2894.77521	0.90223
2892.84664	0.90041
2890.91808	0.89609
2888.98952	0.89169
2887.06095	0.88846
2885.13239	0.88672
2883.20382	0.88631
2881.27526	0.88654
2879.34669	0.88747
2877.41813	0.88878
2875.48956	0.88881
2873.56100	0.88563
2871.63244	0.87888
2869.70387	0.87094
2867.77531	0.86480
2865.84674	0.86133
2863.91818	0.85991
2861.98961	0.85992
2860.06105	0.86061
2858.13248	0.86225
2856.20392	0.86666
2854.27536	0.87323
2852.34679	0.87796
2850.41823	0.87693
2848.48966	0.86646
2846.56110	0.84616
2844.63253	0.82279
2842.70397	0.80401
2840.77540	0.79152
2838.84684	0.78251
2836.91828	0.77497
2834.98971	0.76886
2833.06115	0.76403
2831.13258	0.76008
2829.20402	0.75674
2827.27545	0.75421
2825.34689	0.75251
2823.41832	0.75039
2821.48976	0.74725
2819.56120	0.74402
2817.63263	0.74123
2815.70407	0.73823
2813.77550	0.73495
2811.84694	0.73223
2809.91837	0.72962
2807.98981	0.72645
2806.06124	0.72316
2804.13268	0.72005
2802.20412	0.71690
2800.27555	0.71365
2798.34699	0.71046
2796.41842	0.70709
2794.48986	0.70315
2792.56129	0.69908
2790.63273	0.69586
2788.70416	0.69366
2786.77560	0.69145
2784.84704	0.68856
2782.91847	0.68565
2780.98991	0.68334
2779.06134	0.68111
2777.13278	0.67834
2775.20421	0.67534
2773.27565	0.67283
2771.34708	0.67128
2769.41852	0.67044
2767.48996	0.66954
2765.56139	0.66832
2763.63283	0.66700
2761.70426	0.66534
2759.77570	0.66353
2757.84713	0.66218
2755.91857	0.66139
2753.99001	0.66085
2752.06144	0.65985
2750.13288	0.65823
2748.20431	0.65669
2746.27575	0.65559
2744.34718	0.65468
2742.41862	0.65421
2740.49005	0.65467
2738.56149	0.65476
2736.63293	0.65335
2734.70436	0.65179
2732.77580	0.65064
2730.84723	0.64907
2728.91867	0.64726
2726.99010	0.64567
2725.06154	0.64436
2723.13297	0.64326
2721.20441	0.64200
2719.27585	0.64041
2717.34728	0.63846
2715.41872	0.63592
2713.49015	0.63339
2711.56159	0.63172
2709.63302	0.63068
2707.70446	0.62971
2705.77589	0.62859
2703.84733	0.62760
2701.91877	0.62674
2699.99020	0.62554
2698.06164	0.62431
2696.13307	0.62341
2694.20451	0.62248
2692.27594	0.62123
2690.34738	0.61945
2688.41881	0.61739
2686.49025	0.61615
2684.56169	0.61585
2682.63312	0.61538
2680.70456	0.61415
2678.77599	0.61226
2676.84743	0.60999
2674.91886	0.60821
2672.99030	0.60750
2671.06173	0.60683
2669.13317	0.60556
2667.20461	0.60430
2665.27604	0.60311
2663.34748	0.60171
2661.41891	0.60052
2659.49035	0.59960
2657.56178	0.59831
2655.63322	0.59634
2653.70465	0.59423
2651.77609	0.59251
2649.84753	0.59123
2647.91896	0.58996
2645.99040	0.58840
2644.06183	0.58688
2642.13327	0.58574
2640.20470	0.58496
2638.27614	0.58428
2636.34757	0.58334
2634.41901	0.58198
2632.49045	0.58049
2630.56188	0.57953
2628.63332	0.57921
2626.70475	0.57848
2624.77619	0.57691
2622.84762	0.57563
2620.91906	0.57514
2618.99049	0.57480
2617.06193	0.57459
2615.13337	0.57473
2613.20480	0.57442
2611.27624	0.57338
2609.34767	0.57228
2607.41911	0.57133
2605.49054	0.57058
2603.56198	0.57002
2601.63342	0.56938
2599.70485	0.56857
2597.77629	0.56753
2595.84772	0.56612
2593.91916	0.56452
2591.99059	0.56275
2590.06203	0.56052
2588.13346	0.55848
2586.20490	0.55730
2584.27634	0.55627
2582.34777	0.55478
2580.41921	0.55310
2578.49064	0.55148
2576.56208	0.54986
2574.63351	0.54846
2572.70495	0.54747
2570.77638	0.54649
2568.84782	0.54531
2566.91926	0.54422
2564.99069	0.54316
2563.06213	0.54184
2561.13356	0.54041
2559.20500	0.53924
2557.27643	0.53837
2555.34787	0.53756
2553.41930	0.53668
2551.49074	0.53596
2549.56218	0.53561
2547.63361	0.53557
2545.70505	0.53537
2543.77648	0.53473
2541.84792	0.53379
2539.91935	0.53253
2537.99079	0.53117
2536.06222	0.53017
2534.13366	0.52937
2532.20510	0.52809
2530.27653	0.52610
2528.34797	0.52405
2526.41940	0.52248
2524.49084	0.52116
2522.56227	0.51964
2520.63371	0.51802
2518.70514	0.51668
2516.77658	0.51544
2514.84802	0.51404
2512.91945	0.51297
2510.99089	0.51230
2509.06232	0.51125
2507.13376	0.50976
2505.20519	0.50860
2503.27663	0.50799
2501.34806	0.50737
2499.41950	0.50620
2497.49094	0.50492
2495.56237	0.50405
2493.63381	0.50313
2491.70524	0.50204
2489.77668	0.50117
2487.84811	0.50026
2485.91955	0.49906
2483.99098	0.49795
2482.06242	0.49699
2480.13386	0.49597
2478.20529	0.49493
2476.27673	0.49365
2474.34816	0.49209
2472.41960	0.49071
2470.49103	0.48963
2468.56247	0.48851
2466.63391	0.48696
2464.70534	0.48517
2462.77678	0.48375
2460.84821	0.48250
2458.91965	0.48101
2456.99108	0.47970
2455.06252	0.47867
2453.13395	0.47747
2451.20539	0.47604
2449.27683	0.47442
2447.34826	0.47268
2445.41970	0.47112
2443.49113	0.47000
2441.56257	0.46915
2439.63400	0.46807
2437.70544	0.46660
2435.77687	0.46537
2433.84831	0.46473
2431.91975	0.46411
2429.99118	0.46323
2428.06262	0.46237
2426.13405	0.46168
2424.20549	0.46116
2422.27692	0.46067
2420.34836	0.46028
2418.41979	0.46018
2416.49123	0.46001
2414.56267	0.45951
2412.63410	0.45889
2410.70554	0.45820
2408.77697	0.45717
2406.84841	0.45587
2404.91984	0.45459
2402.99128	0.45351
2401.06271	0.45255
2399.13415	0.45123
2397.20559	0.44937
2395.27702	0.44754
2393.34846	0.44607
2391.41989	0.44447
2389.49133	0.44257
2387.56276	0.44082
2385.63420	0.43926
2383.70563	0.43729
2381.77707	0.43491
2379.84851	0.43289
2377.91994	0.43133
2375.99138	0.42951
2374.06281	0.42747
2372.13425	0.42606
2370.20568	0.42515
2368.27712	0.42392
2366.34855	0.42283
2364.41999	0.42329
2362.49143	0.42500
2360.56286	0.42509
2358.63430	0.42411
2356.70573	0.42574
2354.77717	0.42846
2352.84860	0.42911
2350.92004	0.42756
2348.99147	0.42571
2347.06291	0.42487
2345.13435	0.42456
2343.20578	0.42390
2341.27722	0.42453
2339.34865	0.42645
2337.42009	0.42701
2335.49152	0.42575
2333.56296	0.42406
2331.63440	0.42214
2329.70583	0.42036
2327.77727	0.41990
2325.84870	0.42036
2323.92014	0.42073
2321.99157	0.42049
2320.06301	0.41958
2318.13444	0.41853
2316.20588	0.41739
2314.27732	0.41561
2312.34875	0.41358
2310.42019	0.41251
2308.49162	0.41227
2306.56306	0.41170
2304.63449	0.41072
2302.70593	0.40984
2300.77736	0.40902
2298.84880	0.40807
2296.92024	0.40719
2294.99167	0.40669
2293.06311	0.40639
2291.13454	0.40601
2289.20598	0.40571
2287.27741	0.40547
2285.34885	0.40494
2283.42028	0.40414
2281.49172	0.40357
2279.56316	0.40346
2277.63459	0.40333
2275.70603	0.40269
2273.77746	0.40187
2271.84890	0.40145
2269.92033	0.40111
2267.99177	0.40043
2266.06320	0.39979
2264.13464	0.39930
2262.20608	0.39862
2260.27751	0.39752
2258.34895	0.39606
2256.42038	0.39485
2254.49182	0.39422
2252.56325	0.39354
2250.63469	0.39257
2248.70612	0.39172
2246.77756	0.39090
2244.84900	0.39004
2242.92043	0.38938
2240.99187	0.38877
2239.06330	0.38811
2237.13474	0.38752
2235.20617	0.38678
2233.27761	0.38613
2231.34904	0.38591
2229.42048	0.38585
2227.49192	0.38581
2225.56335	0.38588
2223.63479	0.38607
2221.70622	0.38666
2219.77766	0.38761
2217.84909	0.38846
2215.92053	0.38913
2213.99196	0.38980
2212.06340	0.39035
2210.13484	0.39075
2208.20627	0.39122
2206.27771	0.39192
2204.34914	0.39264
2202.42058	0.39319
2200.49201	0.39368
2198.56345	0.39410
2196.63488	0.39443
2194.70632	0.39470
2192.77776	0.39478
2190.84919	0.39478
2188.92063	0.39484
2186.99206	0.39505
2185.06350	0.39556
2183.13493	0.39618
2181.20637	0.39655
2179.27781	0.39665
2177.34924	0.39680
2175.42068	0.39718
2173.49211	0.39757
2171.56355	0.39783
2169.63498	0.39810
2167.70642	0.39843
2165.77785	0.39867
2163.84929	0.39874
2161.92073	0.39871
2159.99216	0.39886
2158.06360	0.39922
2156.13503	0.39951
2154.20647	0.39974
2152.27790	0.40002
2150.34934	0.40004
2148.42077	0.39982
2146.49221	0.39983
2144.56365	0.40007
2142.63508	0.40026
2140.70652	0.40043
2138.77795	0.40053
2136.84939	0.40046
2134.92082	0.40034
2132.99226	0.40018
2131.06369	0.39988
2129.13513	0.39954
2127.20657	0.39935
2125.27800	0.39913
2123.34944	0.39858
2121.42087	0.39778
2119.49231	0.39703
2117.56374	0.39654
2115.63518	0.39623
2113.70661	0.39560
2111.77805	0.39442
2109.84949	0.39306
2107.92092	0.39188
2105.99236	0.39072
2104.06379	0.38938
2102.13523	0.38811
2100.20666	0.38718
2098.27810	0.38639
2096.34953	0.38558
2094.42097	0.38485
2092.49241	0.38422
2090.56384	0.38366
2088.63528	0.38301
2086.70671	0.38215
2084.77815	0.38145
2082.84958	0.38104
2080.92102	0.38068
2078.99245	0.38024
2077.06389	0.37986
2075.13533	0.37954
2073.20676	0.37899
2071.27820	0.37817
2069.34963	0.37736
2067.42107	0.37685
2065.49250	0.37655
2063.56394	0.37599
2061.63537	0.37506
2059.70681	0.37412
2057.77825	0.37342
2055.84968	0.37292
2053.92112	0.37247
2051.99255	0.37213
2050.06399	0.37189
2048.13542	0.37147
2046.20686	0.37066
2044.27830	0.36974
2042.34973	0.36906
2040.42117	0.36856
2038.49260	0.36809
2036.56404	0.36756
2034.63547	0.36699
2032.70691	0.36657
2030.77834	0.36633
2028.84978	0.36614
2026.92122	0.36592
2024.99265	0.36574
2023.06409	0.36576
2021.13552	0.36588
2019.20696	0.36589
2017.27839	0.36604
2015.34983	0.36645
2013.42126	0.36691
2011.49270	0.36755
2009.56414	0.36848
2007.63557	0.36935
2005.70701	0.36994
2003.77844	0.37049
2001.84988	0.37129
1999.92131	0.37228
1997.99275	0.37308
1996.06418	0.37353
1994.13562	0.37404
1992.20706	0.37498
1990.27849	0.37600
1988.34993	0.37669
1986.42136	0.37712
1984.49280	0.37739
1982.56423	0.37762
1980.63567	0.37781
1978.70710	0.37797
1976.77854	0.37817
1974.84998	0.37840
1972.92141	0.37841
1970.99285	0.37803
1969.06428	0.37769
1967.13572	0.37780
1965.20715	0.37798
1963.27859	0.37790
1961.35002	0.37783
1959.42146	0.37774
1957.49290	0.37757
1955.56433	0.37746
1953.63577	0.37724
1951.70720	0.37680
1949.77864	0.37627
1947.85007	0.37573
1945.92151	0.37507
1943.99294	0.37426
1942.06438	0.37337
1940.13582	0.37223
1938.20725	0.37079
1936.27869	0.36906
1934.35012	0.36713
1932.42156	0.36530
1930.49299	0.36373
1928.56443	0.36213
1926.63586	0.36015
1924.70730	0.35805
1922.77874	0.35614
1920.85017	0.35412
1918.92161	0.35223
1916.99304	0.35073
1915.06448	0.34900
1913.13591	0.34717
1911.20735	0.34593
1909.27878	0.34533
1907.35022	0.34481
1905.42166	0.34413
1903.49309	0.34362
1901.56453	0.34341
1899.63596	0.34327
1897.70740	0.34327
1895.77883	0.34374
1893.85027	0.34424
1891.92171	0.34429
1889.99314	0.34458
1888.06458	0.34494
1886.13601	0.34466
1884.20745	0.34426
1882.27888	0.34414
1880.35032	0.34402
1878.42175	0.34364
1876.49319	0.34319
1874.56463	0.34293
1872.63606	0.34264
1870.70750	0.34252
1868.77893	0.34346
1866.85037	0.34447
1864.92180	0.34417
1862.99324	0.34348
1861.06467	0.34319
1859.13611	0.34320
1857.20755	0.34308
1855.27898	0.34274
1853.35042	0.34244
1851.42185	0.34228
1849.49329	0.34219
1847.56472	0.34204
1845.63616	0.34252
1843.70759	0.34416
1841.77903	0.34481
1839.85047	0.34429
1837.92190	0.34434
1835.99334	0.34505
1834.06477	0.34524
1832.13621	0.34536
1830.20764	0.34682
1828.27908	0.34827
1826.35051	0.34858
1824.42195	0.34915
1822.49339	0.34948
1820.56482	0.34919
1818.63626	0.34921
1816.70769	0.34965
1814.77913	0.35002
1812.85056	0.35057
1810.92200	0.35153
1808.99343	0.35224
1807.06487	0.35233
1805.13631	0.35217
1803.20774	0.35217
1801.27918	0.35286
1799.35061	0.35392
1797.42205	0.35438
1795.49348	0.35440
1793.56492	0.35521
1791.63635	0.35716
1789.70779	0.35789
1787.77923	0.35781
1785.85066	0.35846
1783.92210	0.35956
1781.99353	0.36080
1780.06497	0.36253
1778.13640	0.36375
1776.20784	0.36392
1774.27927	0.36468
1772.35071	0.36781
1770.42215	0.37083
1768.49358	0.37193
1766.56502	0.37241
1764.63645	0.37284
1762.70789	0.37451
1760.77932	0.37761
1758.85076	0.38064
1756.92220	0.38494
1754.99363	0.38975
1753.06507	0.39440
1751.13650	0.40234
1749.20794	0.41393
1747.27937	0.42320
1745.35081	0.42948
1743.42224	0.43484
1741.49368	0.43990
1739.56512	0.44432
1737.63655	0.44650
1735.70799	0.44789
1733.77942	0.45230
1731.85086	0.45611
1729.92229	0.45797
1727.99373	0.46025
1726.06516	0.46285
1724.13660	0.46677
1722.20804	0.47116
1720.27947	0.47501
1718.35091	0.48263
1716.42234	0.49825
1714.49378	0.51160
1712.56521	0.52170
1710.63665	0.53314
1708.70808	0.54718
1706.77952	0.56845
1704.85096	0.59768
1702.92239	0.62461
1700.99383	0.66179
1699.06526	0.72200
1697.13670	0.78014
1695.20813	0.83539
1693.27957	0.87371
1691.35100	0.90237
1689.42244	0.93786
1687.49388	0.97188
1685.56531	1.00573
1683.63675	1.05368
1681.70818	1.08375
1679.77962	1.09859
1677.85105	1.11315
1675.92249	1.13050
1673.99392	1.14607
1672.06536	1.15384
1670.13680	1.16035
1668.20823	1.17162
1666.27967	1.17947
1664.35110	1.18405
1662.42254	1.18819
1660.49397	1.19036
1658.56541	1.19053
1656.63684	1.19025
1654.70828	1.19244
1652.77972	1.19285
1650.85115	1.18708
1648.92259	1.18200
1646.99402	1.17706
1645.06546	1.17368
1643.13689	1.16993
1641.20833	1.16510
1639.27976	1.15989
1637.35120	1.15521
1635.42264	1.15106
1633.49407	1.14693
1631.56551	1.14228
1629.63694	1.13594
1627.70838	1.12813
1625.77981	1.11945
1623.85125	1.10893
1621.92269	1.09740
1619.99412	1.08817
1618.06556	1.07817
1616.13699	1.06265
1614.20843	1.04761
1612.27986	1.03446
1610.35130	1.02043
1608.42273	1.00530
1606.49417	0.99167
1604.56561	0.98161
1602.63704	0.97412
1600.70848	0.96805
1598.77991	0.96283
1596.85135	0.95868
1594.92278	0.95582
1592.99422	0.95397
1591.06565	0.95384
1589.13709	0.95610
1587.20853	0.96034
1585.27996	0.96630
1583.35140	0.97414
1581.42283	0.98254
1579.49427	0.99013
1577.56570	1.00012
1575.63714	1.01538
1573.70857	1.02481
1571.78001	1.02989
1569.85145	1.04000
1567.92288	1.05219
1565.99432	1.05925
1564.06575	1.06385
1562.13719	1.06694
1560.20862	1.07323
1558.28006	1.08928
1556.35149	1.09521
1554.42293	1.09598
1552.49437	1.09523
1550.56580	1.09254
1548.63724	1.08941
1546.70867	1.08677
1544.78011	1.08406
1542.85154	1.08145
1540.92298	1.07708
1538.99441	1.06882
1537.06585	1.06414
1535.13729	1.06045
1533.20872	1.05469
1531.28016	1.04840
1529.35159	1.04349
1527.42303	1.03825
1525.49446	1.03265
1523.56590	1.02917
1521.63733	1.02708
1519.70877	1.02440
1517.78021	1.01894
1515.85164	1.01001
1513.92308	0.99969
1511.99451	0.98809
1510.06595	0.97519
1508.13738	0.95792
1506.20882	0.93370
1504.28025	0.91871
1502.35169	0.90768
1500.42313	0.89612
1498.49456	0.88197
1496.56600	0.86389
1494.63743	0.84888
1492.70887	0.83924
1490.78030	0.82999
1488.85174	0.81800
1486.92317	0.80804
1484.99461	0.80163
1483.06605	0.79740
1481.13748	0.79524
1479.20892	0.79543
1477.28035	0.79830
1475.35179	0.80448
1473.42322	0.81668
1471.49466	0.83096
1469.56610	0.83728
1467.63753	0.83999
1465.70897	0.84458
1463.78040	0.84988
1461.85184	0.85166
1459.92327	0.85200
1457.99471	0.85653
1456.06614	0.86497
1454.13758	0.86651
1452.20902	0.86470
1450.28045	0.86280
1448.35189	0.86108
1446.42332	0.85878
1444.49476	0.85609
1442.56619	0.85338
1440.63763	0.85074
1438.70906	0.84787
1436.78050	0.84322
1434.85194	0.83697
1432.92337	0.83149
1430.99481	0.82640
1429.06624	0.82189
1427.13768	0.81930
1425.20911	0.81868
1423.28055	0.81926
1421.35198	0.82019
1419.42342	0.82258
1417.49486	0.82590
1415.56629	0.82666
1413.63773	0.82563
1411.70916	0.82426
1409.78060	0.82328
1407.85203	0.82273
1405.92347	0.82218
1403.99490	0.82123
1402.06634	0.82016
1400.13778	0.81934
1398.20921	0.81840
1396.28065	0.81705
1394.35208	0.81582
1392.42352	0.81480
1390.49495	0.81424
1388.56639	0.81636
1386.63782	0.82308
1384.70926	0.83111
1382.78070	0.83816
1380.85213	0.84400
1378.92357	0.84689
1376.99500	0.84570
1375.06644	0.84063
1373.13787	0.83304
1371.20931	0.82485
1369.28074	0.81528
1367.35218	0.80420
1365.42362	0.79374
1363.49505	0.78452
1361.56649	0.77738
1359.63792	0.77317
1357.70936	0.77097
1355.78079	0.76993
1353.85223	0.76916
1351.92366	0.76823
1349.99510	0.76741
1348.06654	0.76648
1346.13797	0.76499
1344.20941	0.76329
1342.28084	0.76152
1340.35228	0.75953
1338.42371	0.75819
1336.49515	0.75820
1334.56659	0.75933
1332.63802	0.76169
1330.70946	0.76519
1328.78089	0.76853
1326.85233	0.77025
1324.92376	0.77044
1322.99520	0.77048
1321.06663	0.77153
1319.13807	0.77360
1317.20951	0.77593
1315.28094	0.77819
1313.35238	0.78048
1311.42381	0.78256
1309.49525	0.78428
1307.56668	0.78580
1305.63812	0.78727
1303.70955	0.78894
1301.78099	0.79057
1299.85243	0.79122
1297.92386	0.79054
1295.99530	0.78941
1294.06673	0.78907
1292.13817	0.79003
1290.20960	0.79214
1288.28104	0.79500
1286.35247	0.79792
1284.42391	0.80030
1282.49535	0.80211
1280.56678	0.80359
1278.63822	0.80495
1276.70965	0.80658
1274.78109	0.80885
1272.85252	0.81185
1270.92396	0.81540
1268.99539	0.81928
1267.06683	0.82303
1265.13827	0.82554
1263.20970	0.82634
1261.28114	0.82618
1259.35257	0.82567
1257.42401	0.82507
1255.49544	0.82473
1253.56688	0.82485
1251.63831	0.82552
1249.70975	0.82658
1247.78119	0.82787
1245.85262	0.82935
1243.92406	0.83075
1241.99549	0.83231
1240.06693	0.83413
1238.13836	0.83538
1236.20980	0.83576
1234.28123	0.83564
1232.35267	0.83527
1230.42411	0.83441
1228.49554	0.83235
1226.56698	0.82887
1224.63841	0.82442
1222.70985	0.81977
1220.78128	0.81544
1218.85272	0.81100
1216.92415	0.80628
1214.99559	0.80196
1213.06703	0.79848
1211.13846	0.79605
1209.20990	0.79416
1207.28133	0.79123
1205.35277	0.78590
1203.42420	0.77790
1201.49564	0.76780
1199.56708	0.75672
1197.63851	0.74558
1195.70995	0.73475
1193.78138	0.72455
1191.85282	0.71612
1189.92425	0.71010
1187.99569	0.70560
1186.06712	0.70228
1184.13856	0.70078
1182.21000	0.70130
1180.28143	0.70388
1178.35287	0.70902
1176.42430	0.71686
1174.49574	0.72658
1172.56717	0.73709
1170.63861	0.74818
1168.71004	0.76071
1166.78148	0.77533
1164.85292	0.79105
1162.92435	0.80524
1160.99579	0.81505
1159.06722	0.81919
1157.13866	0.81768
1155.21009	0.81174
1153.28153	0.80303
1151.35296	0.79200
1149.42440	0.77962
1147.49584	0.76792
1145.56727	0.75785
1143.63871	0.74991
1141.71014	0.74515
1139.78158	0.74404
1137.85301	0.74616
1135.92445	0.75112
1133.99588	0.75820
1132.06732	0.76716
1130.13876	0.77895
1128.21019	0.79299
1126.28163	0.80705
1124.35306	0.81994
1122.42450	0.83127
1120.49593	0.84044
1118.56737	0.84705
1116.63880	0.85107
1114.71024	0.85220
1112.78168	0.85032
1110.85311	0.84639
1108.92455	0.84229
1106.99598	0.84019
1105.06742	0.84061
1103.13885	0.84245
1101.21029	0.84576
1099.28172	0.85156
1097.35316	0.85948
1095.42460	0.86875
1093.49603	0.88000
1091.56747	0.89391
1089.63890	0.90992
1087.71034	0.92654
1085.78177	0.94244
1083.85321	0.95659
1081.92464	0.96776
1079.99608	0.97540
1078.06752	0.97912
1076.13895	0.97803
1074.21039	0.97214
1072.28182	0.96276
1070.35326	0.95178
1068.42469	0.94097
1066.49613	0.93116
1064.56756	0.92185
1062.63900	0.91211
1060.71044	0.90169
1058.78187	0.89161
1056.85331	0.88320
1054.92474	0.87651
1052.99618	0.87111
1051.06761	0.86782
1049.13905	0.86811
1047.21049	0.87175
1045.28192	0.87694
1043.35336	0.88288
1041.42479	0.88968
1039.49623	0.89650
1037.56766	0.90229
1035.63910	0.90731
1033.71053	0.91196
1031.78197	0.91492
1029.85341	0.91523
1027.92484	0.91395
1025.99628	0.91154
1024.06771	0.90730
1022.13915	0.90166
1020.21058	0.89620
1018.28202	0.89217
1016.35345	0.88924
1014.42489	0.88497
1012.49633	0.87659
1010.56776	0.86381
1008.63920	0.84783
1006.71063	0.82988
1004.78207	0.81190
1002.85350	0.79425
1000.92494	0.77595
998.99637	0.75811
997.06781	0.74223
995.13925	0.72753
993.21068	0.71283
991.28212	0.69784
989.35355	0.68247
987.42499	0.66708
985.49642	0.65236
983.56786	0.63867
981.63929	0.62663
979.71073	0.61674
977.78217	0.60815
975.85360	0.59956
973.92504	0.59020
971.99647	0.57970
970.06791	0.56836
968.13934	0.55702
966.21078	0.54684
964.28221	0.53940
962.35365	0.53620
960.42509	0.53821
958.49652	0.54521
956.56796	0.55384
954.63939	0.55898
952.71083	0.55851
950.78226	0.55413
948.85370	0.54847
946.92513	0.54343
944.99657	0.53983
943.06801	0.53811
941.13944	0.53839
939.21088	0.54012
937.28231	0.54260
935.35375	0.54556
933.42518	0.54894
931.49662	0.55260
929.56805	0.55617
927.63949	0.55957
925.71093	0.56325
923.78236	0.56748
921.85380	0.57191
919.92523	0.57599
917.99667	0.57899
916.06810	0.58069
914.13954	0.58216
912.21098	0.58443
910.28241	0.58779
908.35385	0.59250
906.42528	0.59859
904.49672	0.60522
902.56815	0.61115
900.63959	0.61597
898.71102	0.62026
896.78246	0.62430
894.85390	0.62726
892.92533	0.62849
890.99677	0.62874
889.06820	0.62895
887.13964	0.62981
885.21107	0.63193
883.28251	0.63489
881.35394	0.63798
879.42538	0.64136
877.49682	0.64500
875.56825	0.64806
873.63969	0.65017
871.71112	0.65182
869.78256	0.65337
867.85399	0.65503
865.92543	0.65698
863.99686	0.65912
862.06830	0.66064
860.13974	0.66097
858.21117	0.66100
856.28261	0.66129
854.35404	0.66126
852.42548	0.66067
850.49691	0.65933
848.56835	0.65670
846.63978	0.65284
844.71122	0.64881
842.78266	0.64531
840.85409	0.64214
838.92553	0.63928
836.99696	0.63698
835.06840	0.63527
833.13983	0.63412
831.21127	0.63347
829.28270	0.63334
827.35414	0.63341
825.42558	0.63355
823.49701	0.63434
821.56845	0.63559
819.63988	0.63703
817.71132	0.63989
815.78275	0.64448
813.85419	0.64915
811.92562	0.65313
809.99706	0.65702
808.06850	0.66105
806.13993	0.66476
804.21137	0.66776
802.28280	0.67043
800.35424	0.67278
798.42567	0.67402
796.49711	0.67414
794.56854	0.67398
792.63998	0.67386
790.71142	0.67375
788.78285	0.67313
786.85429	0.67130
784.92572	0.66895
782.99716	0.66676
781.06859	0.66435
779.14003	0.66165
777.21147	0.65882
775.28290	0.65584
773.35434	0.65287
771.42577	0.65030
769.49721	0.64816
767.56864	0.64624
765.64008	0.64492
763.71151	0.64438
761.78295	0.64480
759.85439	0.64676
757.92582	0.64983
755.99726	0.65361
754.06869	0.65878
752.14013	0.66509
750.21156	0.67179
748.28300	0.67945
746.35443	0.68803
744.42587	0.69640
742.49731	0.70462
740.56874	0.71354
738.64018	0.72323
736.71161	0.73362
734.78305	0.74494
732.85448	0.75622
730.92592	0.76667
728.99735	0.77738
727.06879	0.78828
725.14023	0.79795
723.21166	0.80628
721.28310	0.81410
719.35453	0.82071
717.42597	0.82459
715.49740	0.82635
713.56884	0.82693
711.64027	0.82713
709.71171	0.82780
707.78315	0.82666
705.85458	0.82215
703.92602	0.81729
701.99745	0.81406
700.06889	0.81173
698.14032	0.80919
696.21176	0.80496
694.28319	0.80002
692.35463	0.79669
690.42607	0.79443
688.49750	0.79197
686.56894	0.78954
684.64037	0.78816
682.71181	0.78908
680.78324	0.79166
678.85468	0.79414
676.92611	0.79611
674.99755	0.79736
673.06899	0.79807
671.14042	0.80008
669.21186	0.80535
667.28329	0.81022
665.35473	0.81058
663.42616	0.81033
661.49760	0.80980
659.56903	0.80733
657.64047	0.80240
655.71191	0.79589
653.78334	0.78905
651.85478	0.78201
649.92621	0.77370
647.99765	0.76405
646.06908	0.75520
644.14052	0.74933
642.21195	0.74549
640.28339	0.74125
638.35483	0.73556
636.42626	0.72783
634.49770	0.71940
632.56913	0.71247
630.64057	0.70680
628.71200	0.70196
626.78344	0.69907
624.85488	0.69866
622.92631	0.69900
620.99775	0.69955
619.06918	0.70190
617.14062	0.70584
615.21205	0.71034
613.28349	0.71722
611.35492	0.72650
609.42636	0.73499
607.49780	0.74267
605.56923	0.75122
603.64067	0.76029
601.71210	0.76975
599.78354	0.78022
