3997.91406	0.27701
3995.98550	0.27637
3994.05693	0.27632
3992.12837	0.27681
3990.19980	0.27748
3988.27124	0.27705
3986.34268	0.27582
3984.41411	0.27484
3982.48555	0.27358
3980.55698	0.27262
3978.62842	0.27320
3976.69985	0.27406
3974.77129	0.27380
3972.84272	0.27326
3970.91416	0.27335
3968.98560	0.27417
3967.05703	0.27532
3965.12847	0.27570
3963.19990	0.27493
3961.27134	0.27360
3959.34277	0.27243
3957.41421	0.27201
3955.48564	0.27225
3953.55708	0.27247
3951.62852	0.27268
3949.69995	0.27343
3947.77139	0.27427
3945.84282	0.27434
3943.91426	0.27427
3941.98569	0.27459
3940.05713	0.27451
3938.12856	0.27405
3936.20000	0.27407
3934.27144	0.27452
3932.34287	0.27436
3930.41431	0.27364
3928.48574	0.27353
3926.55718	0.27379
3924.62861	0.27348
3922.70005	0.27294
3920.77148	0.27313
3918.84292	0.27306
3916.91436	0.27137
3914.98579	0.26912
3913.05723	0.26774
3911.12866	0.26749
3909.20010	0.26793
3907.27153	0.26869
3905.34297	0.26928
3903.41440	0.26840
3901.48584	0.26705
3899.55728	0.26646
3897.62871	0.26579
3895.70015	0.26553
3893.77158	0.26672
3891.84302	0.26868
3889.91445	0.26875
3887.98589	0.26747
3886.05733	0.26680
3884.12876	0.26688
3882.20020	0.26647
3880.27163	0.26577
3878.34307	0.26566
3876.41450	0.26605
3874.48594	0.26671
3872.55737	0.26703
3870.62881	0.26643
3868.70025	0.26569
3866.77168	0.26595
3864.84312	0.26659
3862.91455	0.26611
3860.98599	0.26552
3859.05742	0.26585
3857.12886	0.26655
3855.20029	0.26774
3853.27173	0.26881
3851.34317	0.26742
3849.41460	0.26558
3847.48604	0.26444
3845.55747	0.26415
3843.62891	0.26430
3841.70034	0.26415
3839.77178	0.26365
3837.84321	0.26284
3835.91465	0.26202
3833.98609	0.26208
3832.05752	0.26281
3830.12896	0.26285
3828.20039	0.26201
3826.27183	0.26150
3824.34326	0.26202
3822.41470	0.26283
3820.48613	0.26195
3818.55757	0.26058
3816.62901	0.26045
3814.70044	0.26032
3812.77188	0.25979
3810.84331	0.25977
3808.91475	0.26124
3806.98618	0.26374
3805.05762	0.26439
3803.12905	0.26373
3801.20049	0.26389
3799.27193	0.26521
3797.34336	0.26659
3795.41480	0.26605
3793.48623	0.26424
3791.55767	0.26362
3789.62910	0.26400
3787.70054	0.26396
3785.77197	0.26364
3783.84341	0.26337
3781.91485	0.26263
3779.98628	0.26158
3778.05772	0.26118
3776.12915	0.26165
3774.20059	0.26190
3772.27202	0.26128
3770.34346	0.26073
3768.41489	0.26102
3766.48633	0.26074
3764.55777	0.25998
3762.62920	0.25993
3760.70064	0.26033
3758.77207	0.26065
3756.84351	0.26097
3754.91494	0.26133
3752.98638	0.26177
3751.05781	0.26227
3749.12925	0.26171
3747.20069	0.26070
3745.27212	0.26034
3743.34356	0.26012
3741.41499	0.25985
3739.48643	0.26018
3737.55786	0.26117
3735.62930	0.26178
3733.70074	0.26130
3731.77217	0.26077
3729.84361	0.26039
3727.91504	0.26030
3725.98648	0.26102
3724.05791	0.26199
3722.12935	0.26195
3720.20078	0.26168
3718.27222	0.26157
3716.34366	0.26074
3714.41509	0.25993
3712.48653	0.26081
3710.55796	0.26196
3708.62940	0.26159
3706.70083	0.26182
3704.77227	0.26241
3702.84370	0.26263
3700.91514	0.26326
3698.98658	0.26392
3697.05801	0.26414
3695.12945	0.26454
3693.20088	0.26532
3691.27232	0.26681
3689.34375	0.26904
3687.41519	0.26989
3685.48662	0.27000
3683.55806	0.27068
3681.62950	0.27192
3679.70093	0.27371
3677.77237	0.27664
3675.84380	0.28074
3673.91524	0.28268
3671.98667	0.28308
3670.05811	0.28413
3668.12954	0.28491
3666.20098	0.28591
3664.27242	0.28845
3662.34385	0.29210
3660.41529	0.29554
3658.48672	0.29877
3656.55816	0.30313
3654.62959	0.30735
3652.70103	0.31059
3650.77246	0.31551
3648.84390	0.32218
3646.91534	0.32511
3644.98677	0.32638
3643.05821	0.32841
3641.12964	0.33180
3639.20108	0.33607
3637.27251	0.34032
3635.34395	0.34407
3633.41538	0.34688
3631.48682	0.34900
3629.55826	0.35342
3627.62969	0.35973
3625.70113	0.36391
3623.77256	0.36727
3621.84400	0.36996
3619.91543	0.37277
3617.98687	0.37706
3616.05830	0.38173
3614.12974	0.38662
3612.20118	0.39181
3610.27261	0.39742
3608.34405	0.40382
3606.41548	0.40883
3604.48692	0.41153
3602.55835	0.41412
3600.62979	0.41811
3598.70123	0.42328
3596.77266	0.42897
3594.84410	0.43508
3592.91553	0.44060
3590.98697	0.44505
3589.05840	0.45043
3587.12984	0.45719
3585.20127	0.46174
3583.27271	0.46463
3581.34415	0.46818
3579.41558	0.47300
3577.48702	0.47833
3575.55845	0.48343
3573.62989	0.48818
3571.70132	0.49261
3569.77276	0.49669
3567.84419	0.50187
3565.91563	0.50853
3563.98707	0.51426
3562.05850	0.52006
3560.12994	0.52608
3558.20137	0.53175
3556.27281	0.53750
3554.34424	0.54345
3552.41568	0.54968
3550.48711	0.55581
3548.55855	0.56212
3546.62999	0.56943
3544.70142	0.57646
3542.77286	0.58154
3540.84429	0.58624
3538.91573	0.59269
3536.98716	0.60107
3535.05860	0.60911
3533.13003	0.61489
3531.20147	0.61957
3529.27291	0.62577
3527.34434	0.63445
3525.41578	0.64330
3523.48721	0.64990
3521.55865	0.65486
3519.63008	0.66066
3517.70152	0.66891
3515.77295	0.67806
3513.84439	0.68638
3511.91583	0.69528
3509.98726	0.70632
3508.05870	0.71800
3506.13013	0.72916
3504.20157	0.74155
3502.27300	0.75500
3500.34444	0.76694
3498.41587	0.77664
3496.48731	0.78512
3494.55875	0.79454
3492.63018	0.80488
3490.70162	0.81434
3488.77305	0.82265
3486.84449	0.82998
3484.91592	0.83551
3482.98736	0.84096
3481.05879	0.84772
3479.13023	0.85279
3477.20167	0.85645
3475.27310	0.86117
3473.34454	0.86681
3471.41597	0.87248
3469.48741	0.87730
3467.55884	0.88118
3465.63028	0.88621
3463.70171	0.89359
3461.77315	0.89992
3459.84459	0.90341
3457.91602	0.90839
3455.98746	0.91618
3454.05889	0.92234
3452.13033	0.92482
3450.20176	0.92660
3448.27320	0.93094
3446.34464	0.93718
3444.41607	0.94302
3442.48751	0.94886
3440.55894	0.95292
3438.63038	0.95332
3436.70181	0.95258
3434.77325	0.95339
3432.84468	0.95695
3430.91612	0.96067
3428.98756	0.95998
3427.05899	0.95680
3425.13043	0.95562
3423.20186	0.95524
3421.27330	0.95289
3419.34473	0.95057
3417.41617	0.95063
3415.48760	0.95074
3413.55904	0.94773
3411.63048	0.94386
3409.70191	0.94416
3407.77335	0.94836
3405.84478	0.95266
3403.91622	0.95588
3401.98765	0.95770
3400.05909	0.95637
3398.13052	0.95336
3396.20196	0.95232
3394.27340	0.95362
3392.34483	0.95568
3390.41627	0.95769
3388.48770	0.95934
3386.55914	0.96045
3384.63057	0.96209
3382.70201	0.96440
3380.77344	0.96579
3378.84488	0.96648
3376.91632	0.96646
3374.98775	0.96737
3373.05919	0.97134
3371.13062	0.97443
3369.20206	0.97422
3367.27349	0.97306
3365.34493	0.97133
3363.41636	0.97098
3361.48780	0.97612
3359.55924	0.98540
3357.63067	0.99133
3355.70211	0.99016
3353.77354	0.98827
3351.84498	0.99188
3349.91641	0.99839
3347.98785	1.00365
3346.05928	1.00740
3344.13072	1.01029
3342.20216	1.01258
3340.27359	1.01409
3338.34503	1.01631
3336.41646	1.02274
3334.48790	1.03259
3332.55933	1.04011
3330.63077	1.04259
3328.70220	1.04409
3326.77364	1.04915
3324.84508	1.05569
3322.91651	1.06079
3320.98795	1.06575
3319.05938	1.07006
3317.13082	1.07270
3315.20225	1.07622
3313.27369	1.08238
3311.34513	1.09102
3309.41656	1.10112
3307.48800	1.10920
3305.55943	1.11384
3303.63087	1.11787
3301.70230	1.12368
3299.77374	1.13167
3297.84517	1.13907
3295.91661	1.14158
3293.98805	1.14054
3292.05948	1.14029
3290.13092	1.14204
3288.20235	1.14669
3286.27379	1.15118
3284.34522	1.15073
3282.41666	1.14842
3280.48809	1.14718
3278.55953	1.14634
3276.63097	1.14549
3274.70240	1.14295
3272.77384	1.13881
3270.84527	1.13427
3268.91671	1.12878
3266.98814	1.12221
3265.05958	1.11569
3263.13101	1.10848
3261.20245	1.09794
3259.27389	1.08435
3257.34532	1.07135
3255.41676	1.06171
3253.48819	1.05346
3251.55963	1.04333
3249.63106	1.03194
3247.70250	1.02082
3245.77393	1.01096
3243.84537	1.00188
3241.91681	0.99140
3239.98824	0.98056
3238.05968	0.97046
3236.13111	0.96058
3234.20255	0.95361
3232.27398	0.94934
3230.34542	0.94328
3228.41685	0.93478
3226.48829	0.92622
3224.55973	0.91937
3222.63116	0.91382
3220.70260	0.90754
3218.77403	0.90052
3216.84547	0.89379
3214.91690	0.88704
3212.98834	0.87996
3211.05977	0.87314
3209.13121	0.86738
3207.20265	0.86328
3205.27408	0.85960
3203.34552	0.85416
3201.41695	0.84742
3199.48839	0.84156
3197.55982	0.83719
3195.63126	0.83297
3193.70269	0.82766
3191.77413	0.82101
3189.84557	0.81314
3187.91700	0.80499
3185.98844	0.79868
3184.05987	0.79451
3182.13131	0.78979
3180.20274	0.78330
3178.27418	0.77675
3176.34562	0.77055
3174.41705	0.76327
3172.48849	0.75550
3170.55992	0.74969
3168.63136	0.74589
3166.70279	0.74217
3164.77423	0.73752
3162.84566	0.73219
3160.91710	0.72742
3158.98854	0.72415
3157.05997	0.72206
3155.13141	0.72049
3153.20284	0.71857
3151.27428	0.71584
3149.34571	0.71314
3147.41715	0.71094
3145.48858	0.70872
3143.56002	0.70643
3141.63146	0.70419
3139.70289	0.70198
3137.77433	0.70071
3135.84576	0.70078
3133.91720	0.70089
3131.98863	0.70001
3130.06007	0.69860
3128.13150	0.69751
3126.20294	0.69689
3124.27438	0.69624
3122.34581	0.69574
3120.41725	0.69604
3118.48868	0.69694
3116.56012	0.69814
3114.63155	0.69984
3112.70299	0.70125
3110.77442	0.70140
3108.84586	0.70117
3106.91730	0.70180
3104.98873	0.70276
3103.06017	0.70303
3101.13160	0.70269
3099.20304	0.70224
3097.27447	0.70133
3095.34591	0.69993
3093.41734	0.69874
3091.48878	0.69757
3089.56022	0.69616
3087.63165	0.69430
3085.70309	0.69140
3083.77452	0.68813
3081.84596	0.68511
3079.91739	0.68156
3077.98883	0.67711
3076.06026	0.67251
3074.13170	0.66846
3072.20314	0.66489
3070.27457	0.66163
3068.34601	0.65867
3066.41744	0.65575
3064.48888	0.65245
3062.56031	0.64903
3060.63175	0.64579
3058.70318	0.64246
3056.77462	0.63928
3054.84606	0.63592
3052.91749	0.63124
3050.98893	0.62604
3049.06036	0.62239
3047.13180	0.61991
3045.20323	0.61679
3043.27467	0.61283
3041.34610	0.60821
3039.41754	0.60331
3037.48898	0.59911
3035.56041	0.59545
3033.63185	0.59189
3031.70328	0.58873
3029.77472	0.58594
3027.84615	0.58274
3025.91759	0.57874
3023.98903	0.57501
3022.06046	0.57240
3020.13190	0.57043
3018.20333	0.56850
3016.27477	0.56645
3014.34620	0.56454
3012.41764	0.56308
3010.48907	0.56200
3008.56051	0.56124
3006.63195	0.56088
3004.70338	0.56070
3002.77482	0.56067
3000.84625	0.56113
2998.91769	0.56222
2996.98912	0.56348
2995.06056	0.56458
2993.13199	0.56620
2991.20343	0.56898
2989.27487	0.57257
2987.34630	0.57688
2985.41774	0.58203
2983.48917	0.58763
2981.56061	0.59368
2979.63204	0.60013
2977.70348	0.60654
2975.77491	0.61235
2973.84635	0.61767
2971.91779	0.62403
2969.98922	0.63210
2968.06066	0.64034
2966.13209	0.64713
2964.20353	0.65196
2962.27496	0.65462
2960.34640	0.65458
2958.41783	0.65181
2956.48927	0.64750
2954.56071	0.64250
2952.63214	0.63716
2950.70358	0.63265
2948.77501	0.63000
2946.84645	0.62950
2944.91788	0.63202
2942.98932	0.63821
2941.06075	0.64696
2939.13219	0.65641
2937.20363	0.66547
2935.27506	0.67446
2933.34650	0.68342
2931.41793	0.69073
2929.48937	0.69648
2927.56080	0.70269
2925.63224	0.70924
2923.70367	0.71394
2921.77511	0.71547
2919.84655	0.71408
2917.91798	0.70896
2915.98942	0.69723
2914.06085	0.67905
2912.13229	0.65994
2910.20372	0.64451
2908.27516	0.63276
2906.34659	0.62314
2904.41803	0.61538
2902.48947	0.60995
2900.56090	0.60614
2898.63234	0.60294
2896.70377	0.60081
2894.77521	0.59960
2892.84664	0.59745
2890.91808	0.59421
2888.98952	0.59103
2887.06095	0.58817
2885.13239	0.58620
2883.20382	0.58552
2881.27526	0.58561
2879.34669	0.58611
2877.41813	0.58625
2875.48956	0.58520
2873.56100	0.58246
2871.63244	0.57746
2869.70387	0.57081
2867.77531	0.56388
2865.84674	0.55771
2863.91818	0.55325
2861.98961	0.55104
2860.06105	0.55115
2858.13248	0.55352
2856.20392	0.55834
2854.27536	0.56551
2852.34679	0.57258
2850.41823	0.57388
2848.48966	0.56427
2846.56110	0.54556
2844.63253	0.52537
2842.70397	0.50898
2840.77540	0.49701
2838.84684	0.48865
2836.91828	0.48302
2834.98971	0.47904
2833.06115	0.47565
2831.13258	0.47215
2829.20402	0.46886
2827.27545	0.46613
2825.34689	0.46348
2823.41832	0.46071
2821.48976	0.45788
2819.56120	0.45488
2817.63263	0.45190
2815.70407	0.44928
2813.77550	0.44718
2811.84694	0.44510
2809.91837	0.44236
2807.98981	0.43911
2806.06124	0.43593
2804.13268	0.43296
2802.20412	0.42982
2800.27555	0.42656
2798.34699	0.42361
2796.41842	0.42110
2794.48986	0.41887
2792.56129	0.41679
2790.63273	0.41505
2788.70416	0.41363
2786.77560	0.41207
2784.84704	0.41036
2782.91847	0.40880
2780.98991	0.40722
2779.06134	0.40531
2777.13278	0.40327
2775.20421	0.40127
2773.27565	0.39929
2771.34708	0.39727
2769.41852	0.39496
2767.48996	0.39246
2765.56139	0.39031
2763.63283	0.38855
2761.70426	0.38718
2759.77570	0.38606
2757.84713	0.38453
2755.91857	0.38271
2753.99001	0.38138
2752.06144	0.38038
2750.13288	0.37947
2748.20431	0.37874
2746.27575	0.37819
2744.34718	0.37785
2742.41862	0.37761
2740.49005	0.37729
2738.56149	0.37663
2736.63293	0.37558
2734.70436	0.37459
2732.77580	0.37374
2730.84723	0.37269
2728.91867	0.37154
2726.99010	0.37022
2725.06154	0.36852
2723.13297	0.36681
2721.20441	0.36535
2719.27585	0.36370
2717.34728	0.36168
2715.41872	0.35964
2713.49015	0.35763
2711.56159	0.35580
2709.63302	0.35454
2707.70446	0.35337
2705.77589	0.35191
2703.84733	0.35088
2701.91877	0.35053
2699.99020	0.35035
2698.06164	0.35025
2696.13307	0.35034
2694.20451	0.35047
2692.27594	0.35062
2690.34738	0.35103
2688.41881	0.35159
2686.49025	0.35204
2684.56169	0.35233
2682.63312	0.35229
2680.70456	0.35174
2678.77599	0.35077
2676.84743	0.34948
2674.91886	0.34796
2672.99030	0.34637
2671.06173	0.34473
2669.13317	0.34297
2667.20461	0.34126
2665.27604	0.33970
2663.34748	0.33820
2661.41891	0.33667
2659.49035	0.33512
2657.56178	0.33337
2655.63322	0.33147
2653.70465	0.33002
2651.77609	0.32920
2649.84753	0.32846
2647.91896	0.32761
2645.99040	0.32692
2644.06183	0.32629
2642.13327	0.32539
2640.20470	0.32415
2638.27614	0.32278
2636.34757	0.32164
2634.41901	0.32074
2632.49045	0.31967
2630.56188	0.31822
2628.63332	0.31653
2626.70475	0.31490
2624.77619	0.31352
2622.84762	0.31233
2620.91906	0.31125
2618.99049	0.31021
2617.06193	0.30920
2615.13337	0.30846
2613.20480	0.30824
2611.27624	0.30847
2609.34767	0.30871
2607.41911	0.30875
2605.49054	0.30877
2603.56198	0.30939
2601.63342	0.31075
2599.70485	0.31186
2597.77629	0.31239
2595.84772	0.31318
2593.91916	0.31425
2591.99059	0.31499
2590.06203	0.31543
2588.13346	0.31585
2586.20490	0.31606
2584.27634	0.31586
2582.34777	0.31549
2580.41921	0.31521
2578.49064	0.31470
2576.56208	0.31360
2574.63351	0.31184
2572.70495	0.30978
2570.77638	0.30778
2568.84782	0.30598
2566.91926	0.30450
2564.99069	0.30334
2563.06213	0.30206
2561.13356	0.30054
2559.20500	0.29933
2557.27643	0.29873
2555.34787	0.29838
2553.41930	0.29794
2551.49074	0.29756
2549.56218	0.29754
2547.63361	0.29759
2545.70505	0.29750
2543.77648	0.29753
2541.84792	0.29750
2539.91935	0.29721
2537.99079	0.29682
2536.06222	0.29658
2534.13366	0.29649
2532.20510	0.29628
2530.27653	0.29569
2528.34797	0.29484
2526.41940	0.29404
2524.49084	0.29331
2522.56227	0.29237
2520.63371	0.29145
2518.70514	0.29073
2516.77658	0.29004
2514.84802	0.28958
2512.91945	0.28965
2510.99089	0.28984
2509.06232	0.28974
2507.13376	0.28961
2505.20519	0.28979
2503.27663	0.29018
2501.34806	0.29042
2499.41950	0.29026
2497.49094	0.28978
2495.56237	0.28913
2493.63381	0.28846
2491.70524	0.28789
2489.77668	0.28738
2487.84811	0.28698
2485.91955	0.28651
2483.99098	0.28570
2482.06242	0.28471
2480.13386	0.28382
2478.20529	0.28304
2476.27673	0.28240
2474.34816	0.28197
2472.41960	0.28178
2470.49103	0.28186
2468.56247	0.28206
2466.63391	0.28221
2464.70534	0.28271
2462.77678	0.28384
2460.84821	0.28495
2458.91965	0.28584
2456.99108	0.28710
2455.06252	0.28853
2453.13395	0.28956
2451.20539	0.29033
2449.27683	0.29105
2447.34826	0.29161
2445.41970	0.29204
2443.49113	0.29218
2441.56257	0.29169
2439.63400	0.29065
2437.70544	0.28934
2435.77687	0.28806
2433.84831	0.28676
2431.91975	0.28524
2429.99118	0.28371
2428.06262	0.28231
2426.13405	0.28103
2424.20549	0.27993
2422.27692	0.27882
2420.34836	0.27769
2418.41979	0.27690
2416.49123	0.27650
2414.56267	0.27634
2412.63410	0.27635
2410.70554	0.27640
2408.77697	0.27646
2406.84841	0.27667
2404.91984	0.27700
2402.99128	0.27735
2401.06271	0.27783
2399.13415	0.27844
2397.20559	0.27879
2395.27702	0.27884
2393.34846	0.27916
2391.41989	0.27991
2389.49133	0.28038
2387.56276	0.28036
2385.63420	0.28038
2383.70563	0.28044
2381.77707	0.28016
2379.84851	0.27946
2377.91994	0.27845
2375.99138	0.27751
2374.06281	0.27727
2372.13425	0.27773
2370.20568	0.27806
2368.27712	0.27731
2366.34855	0.27620
2364.41999	0.27671
2362.49143	0.27897
2360.56286	0.28014
2358.63430	0.27871
2356.70573	0.27820
2354.77717	0.27983
2352.84860	0.28104
2350.92004	0.28118
2348.99147	0.28067
2347.06291	0.27966
2345.13435	0.27854
2343.20578	0.27778
2341.27722	0.27692
2339.34865	0.27590
2337.42009	0.27557
2335.49152	0.27579
2333.56296	0.27511
2331.63440	0.27402
2329.70583	0.27491
2327.77727	0.27715
2325.84870	0.27828
2323.92014	0.27841
2321.99157	0.27909
2320.06301	0.28034
2318.13444	0.28130
2316.20588	0.28196
2314.27732	0.28283
2312.34875	0.28428
2310.42019	0.28621
2308.49162	0.28814
2306.56306	0.28957
2304.63449	0.29043
2302.70593	0.29133
2300.77736	0.29238
2298.84880	0.29278
2296.92024	0.29250
2294.99167	0.29231
2293.06311	0.29233
2291.13454	0.29218
2289.20598	0.29165
2287.27741	0.29076
2285.34885	0.28978
2283.42028	0.28884
2281.49172	0.28793
2279.56316	0.28710
2277.63459	0.28605
2275.70603	0.28490
2273.77746	0.28423
2271.84890	0.28401
2269.92033	0.28392
2267.99177	0.28402
2266.06320	0.28445
2264.13464	0.28505
2262.20608	0.28578
2260.27751	0.28665
2258.34895	0.28749
2256.42038	0.28830
2254.49182	0.28942
2252.56325	0.29086
2250.63469	0.29218
2248.70612	0.29335
2246.77756	0.29453
2244.84900	0.29560
2242.92043	0.29666
2240.99187	0.29779
2239.06330	0.29883
2237.13474	0.29974
2235.20617	0.30067
2233.27761	0.30150
2231.34904	0.30211
2229.42048	0.30259
2227.49192	0.30289
2225.56335	0.30317
2223.63479	0.30378
2221.70622	0.30449
2219.77766	0.30489
2217.84909	0.30527
2215.92053	0.30592
2213.99196	0.30636
2212.06340	0.30652
2210.13484	0.30699
2208.20627	0.30776
2206.27771	0.30830
2204.34914	0.30845
2202.42058	0.30822
2200.49201	0.30781
2198.56345	0.30735
2196.63488	0.30667
2194.70632	0.30575
2192.77776	0.30479
2190.84919	0.30379
2188.92063	0.30268
2186.99206	0.30133
2185.06350	0.29987
2183.13493	0.29873
2181.20637	0.29805
2179.27781	0.29735
2177.34924	0.29662
2175.42068	0.29645
2173.49211	0.29685
2171.56355	0.29726
2169.63498	0.29759
2167.70642	0.29827
2165.77785	0.29936
2163.84929	0.30059
2161.92073	0.30205
2159.99216	0.30393
2158.06360	0.30599
2156.13503	0.30784
2154.20647	0.30927
2152.27790	0.31030
2150.34934	0.31119
2148.42077	0.31195
2146.49221	0.31231
2144.56365	0.31225
2142.63508	0.31213
2140.70652	0.31196
2138.77795	0.31153
2136.84939	0.31091
2134.92082	0.31030
2132.99226	0.30956
2131.06369	0.30848
2129.13513	0.30742
2127.20657	0.30686
2125.27800	0.30667
2123.34944	0.30660
2121.42087	0.30670
2119.49231	0.30702
2117.56374	0.30762
2115.63518	0.30870
2113.70661	0.31021
2111.77805	0.31171
2109.84949	0.31315
2107.92092	0.31490
2105.99236	0.31702
2104.06379	0.31910
2102.13523	0.32073
2100.20666	0.32192
2098.27810	0.32286
2096.34953	0.32359
2094.42097	0.32418
2092.49241	0.32458
2090.56384	0.32470
2088.63528	0.32438
2086.70671	0.32356
2084.77815	0.32257
2082.84958	0.32165
2080.92102	0.32069
2078.99245	0.31963
2077.06389	0.31872
2075.13533	0.31821
2073.20676	0.31803
2071.27820	0.31803
2069.34963	0.31833
2067.42107	0.31890
2065.49250	0.31949
2063.56394	0.32001
2061.63537	0.32042
2059.70681	0.32082
2057.77825	0.32135
2055.84968	0.32182
2053.92112	0.32179
2051.99255	0.32121
2050.06399	0.32034
2048.13542	0.31902
2046.20686	0.31709
2044.27830	0.31497
2042.34973	0.31295
2040.42117	0.31081
2038.49260	0.30845
2036.56404	0.30589
2034.63547	0.30319
2032.70691	0.30070
2030.77834	0.29864
2028.84978	0.29690
2026.92122	0.29541
2024.99265	0.29438
2023.06409	0.29390
2021.13552	0.29384
2019.20696	0.29429
2017.27839	0.29535
2015.34983	0.29670
2013.42126	0.29823
2011.49270	0.30006
2009.56414	0.30211
2007.63557	0.30408
2005.70701	0.30570
2003.77844	0.30681
2001.84988	0.30743
1999.92131	0.30793
1997.99275	0.30853
1996.06418	0.30895
1994.13562	0.30909
1992.20706	0.30904
1990.27849	0.30866
1988.34993	0.30785
1986.42136	0.30696
1984.49280	0.30639
1982.56423	0.30603
1980.63567	0.30560
1978.70710	0.30527
1976.77854	0.30534
1974.84998	0.30572
1972.92141	0.30629
1970.99285	0.30699
1969.06428	0.30777
1967.13572	0.30861
1965.20715	0.30948
1963.27859	0.31041
1961.35002	0.31136
1959.42146	0.31207
1957.49290	0.31239
1955.56433	0.31222
1953.63577	0.31163
1951.70720	0.31075
1949.77864	0.30945
1947.85007	0.30774
1945.92151	0.30570
1943.99294	0.30330
1942.06438	0.30067
1940.13582	0.29811
1938.20725	0.29562
1936.27869	0.29315
1934.35012	0.29086
1932.42156	0.28875
1930.49299	0.28677
1928.56443	0.28509
1926.63586	0.28397
1924.70730	0.28336
1922.77874	0.28285
1920.85017	0.28232
1918.92161	0.28215
1916.99304	0.28245
1915.06448	0.28251
1913.13591	0.28229
1911.20735	0.28230
1909.27878	0.28233
1907.35022	0.28189
1905.42166	0.28122
1903.49309	0.28052
1901.56453	0.27949
1899.63596	0.27793
1897.70740	0.27605
1895.77883	0.27404
1893.85027	0.27189
1891.92171	0.26955
1889.99314	0.26704
1888.06458	0.26454
1886.13601	0.26231
1884.20745	0.26028
1882.27888	0.25849
1880.35032	0.25712
1878.42175	0.25607
1876.49319	0.25511
1874.56463	0.25427
1872.63606	0.25385
1870.70750	0.25402
1868.77893	0.25491
1866.85037	0.25604
1864.92180	0.25683
1862.99324	0.25752
1861.06467	0.25831
1859.13611	0.25920
1857.20755	0.26004
1855.27898	0.26058
1853.35042	0.26084
1851.42185	0.26107
1849.49329	0.26132
1847.56472	0.26121
1845.63616	0.26077
1843.70759	0.26037
1841.77903	0.25981
1839.85047	0.25891
1837.92190	0.25789
1835.99334	0.25693
1834.06477	0.25584
1832.13621	0.25470
1830.20764	0.25362
1828.27908	0.25231
1826.35051	0.25080
1824.42195	0.24921
1822.49339	0.24760
1820.56482	0.24610
1818.63626	0.24480
1816.70769	0.24346
1814.77913	0.24217
1812.85056	0.24114
1810.92200	0.24012
1808.99343	0.23889
1807.06487	0.23762
1805.13631	0.23649
1803.20774	0.23554
1801.27918	0.23487
1799.35061	0.23416
1797.42205	0.23309
1795.49348	0.23193
1793.56492	0.23096
1791.63635	0.23017
1789.70779	0.22907
1787.77923	0.22775
1785.85066	0.22633
1783.92210	0.22486
1781.99353	0.22351
1780.06497	0.22222
1778.13640	0.22094
1776.20784	0.21957
1774.27927	0.21838
1772.35071	0.21782
1770.42215	0.21753
1768.49358	0.21724
1766.56502	0.21713
1764.63645	0.21732
1762.70789	0.21811
1760.77932	0.21971
1758.85076	0.22157
1756.92220	0.22391
1754.99363	0.22628
1753.06507	0.22837
1751.13650	0.23194
1749.20794	0.23732
1747.27937	0.24171
1745.35081	0.24468
1743.42224	0.24728
1741.49368	0.24986
1739.56512	0.25205
1737.63655	0.25315
1735.70799	0.25372
1733.77942	0.25551
1731.85086	0.25724
1729.92229	0.25828
1727.99373	0.25980
1726.06516	0.26201
1724.13660	0.26551
1722.20804	0.26954
1720.27947	0.27374
1718.35091	0.28161
1716.42234	0.29659
1714.49378	0.31023
1712.56521	0.32124
1710.63665	0.33354
1708.70808	0.34813
1706.77952	0.36845
1704.85096	0.39428
1702.92239	0.41728
1700.99383	0.44860
1699.06526	0.49748
1697.13670	0.54300
1695.20813	0.58629
1693.27957	0.61850
1691.35100	0.64566
1689.42244	0.67991
1687.49388	0.71225
1685.56531	0.74636
1683.63675	0.80580
1681.70818	0.85423
1679.77962	0.88418
1677.85105	0.91275
1675.92249	0.94685
1673.99392	0.98282
1672.06536	1.00997
1670.13680	1.04000
1668.20823	1.07332
1666.27967	1.09201
1664.35110	1.10633
1662.42254	1.12455
1660.49397	1.13998
1658.56541	1.14974
1656.63684	1.15580
1654.70828	1.16134
1652.77972	1.16745
1650.85115	1.16627
1648.92259	1.16183
1646.99402	1.15836
1645.06546	1.15790
1643.13689	1.15589
1641.20833	1.15314
1639.27976	1.15106
1637.35120	1.15096
1635.42264	1.15072
1633.49407	1.14757
1631.56551	1.14421
1629.63694	1.13897
1627.70838	1.13024
1625.77981	1.11737
1623.85125	1.09831
1621.92269	1.07480
1619.99412	1.05324
1618.06556	1.02469
1616.13699	0.98142
1614.20843	0.94639
1612.27986	0.91894
1610.35130	0.88866
1608.42273	0.85701
1606.49417	0.83039
1604.56561	0.81001
1602.63704	0.79349
1600.70848	0.78031
1598.77991	0.77045
1596.85135	0.76302
1594.92278	0.75704
1592.99422	0.75269
1591.06565	0.75089
1589.13709	0.75172
1587.20853	0.75515
1585.27996	0.76207
1583.35140	0.77297
1581.42283	0.78539
1579.49427	0.79674
1577.56570	0.81239
1575.63714	0.83884
1573.70857	0.85838
1571.78001	0.87168
1569.85145	0.89325
1567.92288	0.91813
1565.99432	0.93673
1564.06575	0.95330
1562.13719	0.96519
1560.20862	0.97659
1558.28006	1.00411
1556.35149	1.02171
1554.42293	1.02919
1552.49437	1.03447
1550.56580	1.03784
1548.63724	1.03975
1546.70867	1.03952
1544.78011	1.03664
1542.85154	1.03244
1540.92298	1.02916
1538.99441	1.02477
1537.06585	1.02106
1535.13729	1.01729
1533.20872	1.01194
1531.28016	1.00592
1529.35159	1.00035
1527.42303	0.99367
1525.49446	0.98638
1523.56590	0.98153
1521.63733	0.97993
1519.70877	0.98173
1517.78021	0.98089
1515.85164	0.97328
1513.92308	0.96111
1511.99451	0.94640
1510.06595	0.93024
1508.13738	0.90508
1506.20882	0.86472
1504.28025	0.84217
1502.35169	0.82606
1500.42313	0.80707
1498.49456	0.78356
1496.56600	0.75609
1494.63743	0.73358
1492.70887	0.71742
1490.78030	0.69939
1488.85174	0.67574
1486.92317	0.65649
1484.99461	0.64375
1483.06605	0.63408
1481.13748	0.62630
1479.20892	0.62167
1477.28035	0.62088
1475.35179	0.62400
1473.42322	0.63423
1471.49466	0.64934
1469.56610	0.65916
1467.63753	0.66601
1465.70897	0.67504
1463.78040	0.68594
1461.85184	0.69352
1459.92327	0.69926
1457.99471	0.71009
1456.06614	0.72584
1454.13758	0.73400
1452.20902	0.73818
1450.28045	0.74068
1448.35189	0.74208
1446.42332	0.74269
1444.49476	0.74188
1442.56619	0.73933
1440.63763	0.73570
1438.70906	0.73127
1436.78050	0.72407
1434.85194	0.71455
1432.92337	0.70632
1430.99481	0.69842
1429.06624	0.69015
1427.13768	0.68345
1425.20911	0.67882
1423.28055	0.67587
1421.35198	0.67464
1419.42342	0.67592
1417.49486	0.67879
1415.56629	0.68013
1413.63773	0.68033
1411.70916	0.68016
1409.78060	0.68002
1407.85203	0.68033
1405.92347	0.68219
1403.99490	0.68574
1402.06634	0.68890
1400.13778	0.69180
1398.20921	0.69519
1396.28065	0.69792
1394.35208	0.69962
1392.42352	0.70132
1390.49495	0.70441
1388.56639	0.71176
1386.63782	0.72535
1384.70926	0.74028
1382.78070	0.75301
1380.85213	0.76269
1378.92357	0.76734
1376.99500	0.76545
1375.06644	0.75566
1373.13787	0.73934
1371.20931	0.72130
1369.28074	0.70067
1367.35218	0.67794
1365.42362	0.65764
1363.49505	0.63886
1361.56649	0.62198
1359.63792	0.61090
1357.70936	0.60452
1355.78079	0.60087
1353.85223	0.59914
1351.92366	0.59865
1349.99510	0.59868
1348.06654	0.59892
1346.13797	0.59964
1344.20941	0.60098
1342.28084	0.60270
1340.35228	0.60544
1338.42371	0.61014
1336.49515	0.61635
1334.56659	0.62408
1332.63802	0.63384
1330.70946	0.64464
1328.78089	0.65419
1326.85233	0.66134
1324.92376	0.66670
1322.99520	0.67128
1321.06663	0.67572
1319.13807	0.68068
1317.20951	0.68667
1315.28094	0.69322
1313.35238	0.69981
1311.42381	0.70590
1309.49525	0.71072
1307.56668	0.71380
1305.63812	0.71546
1303.70955	0.71651
1301.78099	0.71671
1299.85243	0.71497
1297.92386	0.71096
1295.99530	0.70565
1294.06673	0.70073
1292.13817	0.69726
1290.20960	0.69497
1288.28104	0.69307
1286.35247	0.69134
1284.42391	0.68994
1282.49535	0.68893
1280.56678	0.68855
1278.63822	0.68932
1276.70965	0.69169
1274.78109	0.69608
1272.85252	0.70265
1270.92396	0.71097
1268.99539	0.72005
1267.06683	0.72913
1265.13827	0.73770
1263.20970	0.74469
1261.28114	0.74956
1259.35257	0.75328
1257.42401	0.75668
1255.49544	0.75932
1253.56688	0.76048
1251.63831	0.76022
1249.70975	0.75894
1247.78119	0.75683
1245.85262	0.75389
1243.92406	0.74988
1241.99549	0.74472
1240.06693	0.73851
1238.13836	0.73136
1236.20980	0.72332
1234.28123	0.71444
1232.35267	0.70531
1230.42411	0.69618
1228.49554	0.68672
1226.56698	0.67716
1224.63841	0.66837
1222.70985	0.66063
1220.78128	0.65376
1218.85272	0.64830
1216.92415	0.64480
1214.99559	0.64366
1213.06703	0.64570
1211.13846	0.65088
1209.20990	0.65730
1207.28133	0.66240
1205.35277	0.66416
1203.42420	0.66128
1201.49564	0.65430
1199.56708	0.64539
1197.63851	0.63603
1195.70995	0.62680
1193.78138	0.61867
1191.85282	0.61305
1189.92425	0.61023
1187.99569	0.60931
1186.06712	0.60961
1184.13856	0.61123
1182.21000	0.61491
1180.28143	0.62154
1178.35287	0.63091
1176.42430	0.64212
1174.49574	0.65501
1172.56717	0.67001
1170.63861	0.68770
1168.71004	0.70857
1166.78148	0.73264
1164.85292	0.75839
1162.92435	0.78228
1160.99579	0.80075
1159.06722	0.81147
1157.13866	0.81369
1155.21009	0.80800
1153.28153	0.79507
1151.35296	0.77640
1149.42440	0.75483
1147.49584	0.73291
1145.56727	0.71230
1143.63871	0.69450
1141.71014	0.68090
1139.78158	0.67210
1137.85301	0.66758
1135.92445	0.66691
1133.99588	0.67050
1132.06732	0.67882
1130.13876	0.69203
1128.21019	0.70934
1126.28163	0.72928
1124.35306	0.75083
1122.42450	0.77288
1120.49593	0.79376
1118.56737	0.81176
1116.63880	0.82520
1114.71024	0.83337
1112.78168	0.83655
1110.85311	0.83596
1108.92455	0.83386
1106.99598	0.83146
1105.06742	0.82848
1103.13885	0.82614
1101.21029	0.82605
1099.28172	0.82763
1097.35316	0.83006
1095.42460	0.83410
1093.49603	0.84097
1091.56747	0.85101
1089.63890	0.86348
1087.71034	0.87800
1085.78177	0.89492
1083.85321	0.91393
1081.92464	0.93313
1079.99608	0.94953
1078.06752	0.96131
1076.13895	0.96803
1074.21039	0.96982
1072.28182	0.96820
1070.35326	0.96476
1068.42469	0.95960
1066.49613	0.95190
1064.56756	0.94138
1062.63900	0.92970
1060.71044	0.91801
1058.78187	0.90584
1056.85331	0.89337
1054.92474	0.88148
1052.99618	0.87138
1051.06761	0.86438
1049.13905	0.85993
1047.21049	0.85747
1045.28192	0.85845
1043.35336	0.86333
1041.42479	0.87074
1039.49623	0.87926
1037.56766	0.88750
1035.63910	0.89431
1033.71053	0.89938
1031.78197	0.90319
1029.85341	0.90573
1027.92484	0.90582
1025.99628	0.90285
1024.06771	0.89847
1022.13915	0.89466
1020.21058	0.89180
1018.28202	0.88993
1016.35345	0.88734
1014.42489	0.88040
1012.49633	0.86805
1010.56776	0.85184
1008.63920	0.83292
1006.71063	0.81183
1004.78207	0.78954
1002.85350	0.76793
1000.92494	0.74807
998.99637	0.72960
997.06781	0.71257
995.13925	0.69714
993.21068	0.68269
991.28212	0.66868
989.35355	0.65497
987.42499	0.64161
985.49642	0.62934
983.56786	0.61946
981.63929	0.61296
979.71073	0.60994
977.78217	0.60952
975.85360	0.61015
973.92504	0.60990
971.99647	0.60769
970.06791	0.60407
968.13934	0.60034
966.21078	0.59798
964.28221	0.59844
962.35365	0.60280
960.42509	0.61205
958.49652	0.62615
956.56796	0.64074
954.63939	0.64869
952.71083	0.64697
950.78226	0.63845
948.85370	0.62769
946.92513	0.61751
944.99657	0.60908
943.06801	0.60284
941.13944	0.59853
939.21088	0.59588
937.28231	0.59492
935.35375	0.59555
933.42518	0.59787
931.49662	0.60215
929.56805	0.60799
927.63949	0.61472
925.71093	0.62239
923.78236	0.63115
921.85380	0.64023
919.92523	0.64767
917.99667	0.65203
916.06810	0.65370
914.13954	0.65312
912.21098	0.65072
910.28241	0.64764
908.35385	0.64424
906.42528	0.63987
904.49672	0.63416
902.56815	0.62744
900.63959	0.62005
898.71102	0.61166
896.78246	0.60195
894.85390	0.59183
892.92533	0.58260
890.99677	0.57466
889.06820	0.56813
887.13964	0.56380
885.21107	0.56303
883.28251	0.56620
881.35394	0.57207
879.42538	0.57990
877.49682	0.59001
875.56825	0.60229
873.63969	0.61600
871.71112	0.63040
869.78256	0.64436
867.85399	0.65703
865.92543	0.66831
863.99686	0.67775
862.06830	0.68468
860.13974	0.68891
858.21117	0.69050
856.28261	0.68966
854.35404	0.68637
852.42548	0.68038
850.49691	0.67238
848.56835	0.66383
846.63978	0.65527
844.71122	0.64704
842.78266	0.64000
840.85409	0.63470
838.92553	0.63151
836.99696	0.63007
835.06840	0.62958
833.13983	0.63044
831.21127	0.63309
829.28270	0.63669
827.35414	0.64026
825.42558	0.64423
823.49701	0.64889
821.56845	0.65273
819.63988	0.65504
817.71132	0.65694
815.78275	0.65852
813.85419	0.65884
811.92562	0.65792
809.99706	0.65616
808.06850	0.65349
806.13993	0.65062
804.21137	0.64881
802.28280	0.64809
800.35424	0.64794
798.42567	0.64880
796.49711	0.65084
794.56854	0.65405
792.63998	0.65950
790.71142	0.66688
788.78285	0.67485
786.85429	0.68405
784.92572	0.69539
782.99716	0.70847
781.06859	0.72262
779.14003	0.73631
777.21147	0.74805
775.28290	0.75856
773.35434	0.76848
771.42577	0.77667
769.49721	0.78165
767.56864	0.78231
765.64008	0.77956
763.71151	0.77554
761.78295	0.77007
759.85439	0.76165
757.92582	0.75083
755.99726	0.73943
754.06869	0.72852
752.14013	0.71869
750.21156	0.70996
748.28300	0.70215
746.35443	0.69537
744.42587	0.68998
742.49731	0.68694
740.56874	0.68599
738.64018	0.68578
736.71161	0.68633
734.78305	0.68851
732.85448	0.69223
730.92592	0.69659
728.99735	0.70097
727.06879	0.70489
725.14023	0.70850
723.21166	0.71314
721.28310	0.71936
719.35453	0.72579
717.42597	0.73072
715.49740	0.73412
713.56884	0.73608
711.64027	0.73654
709.71171	0.73704
707.78315	0.73869
705.85458	0.74034
703.92602	0.74035
701.99745	0.73878
700.06889	0.73679
698.14032	0.73408
696.21176	0.72955
694.28319	0.72350
692.35463	0.71732
690.42607	0.71247
688.49750	0.70880
686.56894	0.70420
684.64037	0.69773
682.71181	0.69122
680.78324	0.68662
678.85468	0.68438
676.92611	0.68363
674.99755	0.68276
673.06899	0.68151
671.14042	0.68140
669.21186	0.68617
667.28329	0.69611
665.35473	0.70131
663.42616	0.70489
661.49760	0.71171
659.56903	0.72147
657.64047	0.73132
655.71191	0.74012
653.78334	0.74759
651.85478	0.75241
649.92621	0.75487
647.99765	0.75664
646.06908	0.75767
644.14052	0.75827
642.21195	0.76010
640.28339	0.76229
638.35483	0.76184
636.42626	0.75899
634.49770	0.75671
632.56913	0.75507
630.64057	0.75247
628.71200	0.75086
626.78344	0.75162
624.85488	0.75297
622.92631	0.75448
620.99775	0.75662
619.06918	0.75885
617.14062	0.75909
615.21205	0.75705
613.28349	0.75526
611.35492	0.75276
609.42636	0.74907
607.49780	0.74614
605.56923	0.74230
603.64067	0.73517
601.71210	0.72514
599.78354	0.71473
