3997.91406	0.55489
3995.98550	0.55301
3994.05693	0.55180
3992.12837	0.55229
3990.19980	0.55378
3988.27124	0.55398
3986.34268	0.55239
3984.41411	0.55127
3982.48555	0.55108
3980.55698	0.55002
3978.62842	0.54850
3976.69985	0.54765
3974.77129	0.54659
3972.84272	0.54524
3970.91416	0.54490
3968.98560	0.54561
3967.05703	0.54631
3965.12847	0.54675
3963.19990	0.54638
3961.27134	0.54442
3959.34277	0.54266
3957.41421	0.54263
3955.48564	0.54337
3953.55708	0.54359
3951.62852	0.54240
3949.69995	0.54039
3947.77139	0.53923
3945.84282	0.53918
3943.91426	0.53889
3941.98569	0.53745
3940.05713	0.53651
3938.12856	0.53725
3936.20000	0.53875
3934.27144	0.53940
3932.34287	0.53832
3930.41431	0.53757
3928.48574	0.53855
3926.55718	0.53942
3924.62861	0.53945
3922.70005	0.53959
3920.77148	0.53948
3918.84292	0.53773
3916.91436	0.53513
3914.98579	0.53368
3913.05723	0.53335
3911.12866	0.53355
3909.20010	0.53436
3907.27153	0.53616
3905.34297	0.53743
3903.41440	0.53500
3901.48584	0.53172
3899.55728	0.53055
3897.62871	0.53098
3895.70015	0.53336
3893.77158	0.53588
3891.84302	0.53442
3889.91445	0.53073
3887.98589	0.52906
3886.05733	0.52801
3884.12876	0.52688
3882.20020	0.52630
3880.27163	0.52611
3878.34307	0.52677
3876.41450	0.52694
3874.48594	0.52594
3872.55737	0.52577
3870.62881	0.52657
3868.70025	0.52733
3866.77168	0.52812
3864.84312	0.52696
3862.91455	0.52408
3860.98599	0.52376
3859.05742	0.52583
3857.12886	0.52800
3855.20029	0.52805
3853.27173	0.52278
3851.34317	0.51834
3849.41460	0.51815
3847.48604	0.51964
3845.55747	0.52141
3843.62891	0.52211
3841.70034	0.52168
3839.77178	0.52039
3837.84321	0.51789
3835.91465	0.51619
3833.98609	0.51555
3832.05752	0.51452
3830.12896	0.51379
3828.20039	0.51391
3826.27183	0.51407
3824.34326	0.51536
3822.41470	0.51760
3820.48613	0.51617
3818.55757	0.51288
3816.62901	0.50960
3814.70044	0.50681
3812.77188	0.50651
3810.84331	0.50734
3808.91475	0.50834
3806.98618	0.50857
3805.05762	0.50908
3803.12905	0.51113
3801.20049	0.51112
3799.27193	0.50840
3797.34336	0.50548
3795.41480	0.50315
3793.48623	0.50279
3791.55767	0.50362
3789.62910	0.50443
3787.70054	0.50438
3785.77197	0.50309
3783.84341	0.50248
3781.91485	0.50361
3779.98628	0.50319
3778.05772	0.50050
3776.12915	0.49930
3774.20059	0.50007
3772.27202	0.50104
3770.34346	0.49940
3768.41489	0.49660
3766.48633	0.49621
3764.55777	0.49671
3762.62920	0.49674
3760.70064	0.49596
3758.77207	0.49404
3756.84351	0.49245
3754.91494	0.49305
3752.98638	0.49661
3751.05781	0.49883
3749.12925	0.49683
3747.20069	0.49783
3745.27212	0.49898
3743.34356	0.49559
3741.41499	0.49339
3739.48643	0.49435
3737.55786	0.49681
3735.62930	0.49650
3733.70074	0.49014
3731.77217	0.48633
3729.84361	0.48781
3727.91504	0.49137
3725.98648	0.49389
3724.05791	0.49428
3722.12935	0.49393
3720.20078	0.49284
3718.27222	0.49177
3716.34366	0.49224
3714.41509	0.49321
3712.48653	0.49234
3710.55796	0.49052
3708.62940	0.49037
3706.70083	0.49090
3704.77227	0.49191
3702.84370	0.49341
3700.91514	0.49532
3698.98658	0.49732
3697.05801	0.49894
3695.12945	0.50028
3693.20088	0.50161
3691.27232	0.50215
3689.34375	0.50280
3687.41519	0.50650
3685.48662	0.51071
3683.55806	0.51444
3681.62950	0.51872
3679.70093	0.52421
3677.77237	0.52971
3675.84380	0.53177
3673.91524	0.53197
3671.98667	0.53423
3670.05811	0.53828
3668.12954	0.54293
3666.20098	0.54782
3664.27242	0.55366
3662.34385	0.55995
3660.41529	0.56618
3658.48672	0.57242
3656.55816	0.57822
3654.62959	0.58261
3652.70103	0.58704
3650.77246	0.59269
3648.84390	0.59644
3646.91534	0.60030
3644.98677	0.60701
3643.05821	0.61472
3641.12964	0.62246
3639.20108	0.62922
3637.27251	0.63488
3635.34395	0.64047
3633.41538	0.64641
3631.48682	0.65261
3629.55826	0.66057
3627.62969	0.66884
3625.70113	0.67554
3623.77256	0.68294
3621.84400	0.69101
3619.91543	0.69879
3617.98687	0.70490
3616.05830	0.70868
3614.12974	0.71107
3612.20118	0.71544
3610.27261	0.72338
3608.34405	0.73121
3606.41548	0.73700
3604.48692	0.74450
3602.55835	0.75556
3600.62979	0.76634
3598.70123	0.77306
3596.77266	0.77794
3594.84410	0.78378
3592.91553	0.79118
3590.98697	0.79892
3589.05840	0.80745
3587.12984	0.81620
3585.20127	0.82258
3583.27271	0.82869
3581.34415	0.83575
3579.41558	0.84219
3577.48702	0.84789
3575.55845	0.85554
3573.62989	0.86455
3571.70132	0.87187
3569.77276	0.87699
3567.84419	0.88078
3565.91563	0.88625
3563.98707	0.89577
3562.05850	0.90717
3560.12994	0.91634
3558.20137	0.92133
3556.27281	0.92461
3554.34424	0.92833
3552.41568	0.93319
3550.48711	0.94075
3548.55855	0.95130
3546.62999	0.96086
3544.70142	0.96589
3542.77286	0.96942
3540.84429	0.97566
3538.91573	0.98505
3536.98716	0.99384
3535.05860	1.00048
3533.13003	1.00628
3531.20147	1.01030
3529.27291	1.01341
3527.34434	1.01894
3525.41578	1.02711
3523.48721	1.03525
3521.55865	1.04215
3519.63008	1.04894
3517.70152	1.05637
3515.77295	1.06486
3513.84439	1.07352
3511.91583	1.07998
3509.98726	1.08516
3508.05870	1.09152
3506.13013	1.10117
3504.20157	1.11356
3502.27300	1.12137
3500.34444	1.12614
3498.41587	1.13511
3496.48731	1.14354
3494.55875	1.14664
3492.63018	1.14983
3490.70162	1.15509
3488.77305	1.15713
3486.84449	1.15713
3484.91592	1.16118
3482.98736	1.16886
3481.05879	1.17532
3479.13023	1.17915
3477.20167	1.18453
3475.27310	1.19187
3473.34454	1.19797
3471.41597	1.20271
3469.48741	1.20615
3467.55884	1.20710
3465.63028	1.20528
3463.70171	1.20487
3461.77315	1.20919
3459.84459	1.21302
3457.91602	1.21388
3455.98746	1.21505
3454.05889	1.21626
3452.13033	1.21827
3450.20176	1.22224
3448.27320	1.22376
3446.34464	1.22123
3444.41607	1.22206
3442.48751	1.22940
3440.55894	1.23777
3438.63038	1.24205
3436.70181	1.23964
3434.77325	1.23375
3432.84468	1.23279
3430.91612	1.23800
3428.98756	1.24350
3427.05899	1.24371
3425.13043	1.23818
3423.20186	1.23405
3421.27330	1.23550
3419.34473	1.23636
3417.41617	1.23497
3415.48760	1.23721
3413.55904	1.24238
3411.63048	1.24735
3409.70191	1.25264
3407.77335	1.25617
3405.84478	1.25477
3403.91622	1.25091
3401.98765	1.24968
3400.05909	1.25009
3398.13052	1.25055
3396.20196	1.25213
3394.27340	1.25251
3392.34483	1.25328
3390.41627	1.25781
3388.48770	1.26169
3386.55914	1.26194
3384.63057	1.26180
3382.70201	1.26068
3380.77344	1.25443
3378.84488	1.24868
3376.91632	1.25119
3374.98775	1.25682
3373.05919	1.25964
3371.13062	1.26252
3369.20206	1.26687
3367.27349	1.27031
3365.34493	1.27031
3363.41636	1.26816
3361.48780	1.26773
3359.55924	1.26814
3357.63067	1.26727
3355.70211	1.26694
3353.77354	1.26961
3351.84498	1.27458
3349.91641	1.27683
3347.98785	1.27472
3346.05928	1.27611
3344.13072	1.28395
3342.20216	1.28818
3340.27359	1.28728
3338.34503	1.29102
3336.41646	1.29646
3334.48790	1.29721
3332.55933	1.30004
3330.63077	1.30695
3328.70220	1.31113
3326.77364	1.31247
3324.84508	1.31448
3322.91651	1.31454
3320.98795	1.30889
3319.05938	1.30336
3317.13082	1.30679
3315.20225	1.31335
3313.27369	1.31416
3311.34513	1.31485
3309.41656	1.31766
3307.48800	1.31715
3305.55943	1.31606
3303.63087	1.31690
3301.70230	1.31657
3299.77374	1.31620
3297.84517	1.31623
3295.91661	1.31296
3293.98805	1.30831
3292.05948	1.30480
3290.13092	1.30160
3288.20235	1.30287
3286.27379	1.30821
3284.34522	1.30962
3282.41666	1.30693
3280.48809	1.30382
3278.55953	1.29936
3276.63097	1.29573
3274.70240	1.29838
3272.77384	1.30546
3270.84527	1.31002
3268.91671	1.31049
3266.98814	1.30877
3265.05958	1.30542
3263.13101	1.29996
3261.20245	1.29557
3259.27389	1.29446
3257.34532	1.29003
3255.41676	1.28107
3253.48819	1.27485
3251.55963	1.27122
3249.63106	1.26741
3247.70250	1.26576
3245.77393	1.26600
3243.84537	1.26405
3241.91681	1.25884
3239.98824	1.25170
3238.05968	1.24529
3236.13111	1.24236
3234.20255	1.24049
3232.27398	1.23705
3230.34542	1.23401
3228.41685	1.23147
3226.48829	1.22711
3224.55973	1.22238
3222.63116	1.21821
3220.70260	1.21204
3218.77403	1.20663
3216.84547	1.20610
3214.91690	1.20641
3212.98834	1.20338
3211.05977	1.19938
3209.13121	1.19794
3207.20265	1.19784
3205.27408	1.19525
3203.34552	1.19104
3201.41695	1.18844
3199.48839	1.18572
3197.55982	1.17922
3195.63126	1.17172
3193.70269	1.16930
3191.77413	1.17142
3189.84557	1.17194
3187.91700	1.16745
3185.98844	1.16047
3184.05987	1.15480
3182.13131	1.15122
3180.20274	1.14734
3178.27418	1.14127
3176.34562	1.13665
3174.41705	1.13636
3172.48849	1.13642
3170.55992	1.13470
3168.63136	1.13188
3166.70279	1.12606
3164.77423	1.11825
3162.84566	1.11165
3160.91710	1.10596
3158.98854	1.10070
3157.05997	1.09708
3155.13141	1.09588
3153.20284	1.09611
3151.27428	1.09400
3149.34571	1.08922
3147.41715	1.08660
3145.48858	1.08615
3143.56002	1.08339
3141.63146	1.07844
3139.70289	1.07522
3137.77433	1.07560
3135.84576	1.07746
3133.91720	1.07826
3131.98863	1.07849
3130.06007	1.07962
3128.13150	1.08081
3126.20294	1.08100
3124.27438	1.08083
3122.34581	1.07976
3120.41725	1.07784
3118.48868	1.07722
3116.56012	1.07727
3114.63155	1.07596
3112.70299	1.07460
3110.77442	1.07521
3108.84586	1.07561
3106.91730	1.07304
3104.98873	1.06925
3103.06017	1.06611
3101.13160	1.06414
3099.20304	1.06430
3097.27447	1.06536
3095.34591	1.06540
3093.41734	1.06491
3091.48878	1.06371
3089.56022	1.05914
3087.63165	1.05295
3085.70309	1.05085
3083.77452	1.05104
3081.84596	1.04821
3079.91739	1.04482
3077.98883	1.04418
3076.06026	1.04486
3074.13170	1.04550
3072.20314	1.04419
3070.27457	1.03916
3068.34601	1.03325
3066.41744	1.03062
3064.48888	1.03062
3062.56031	1.02954
3060.63175	1.02571
3058.70318	1.01906
3056.77462	1.01175
3054.84606	1.00823
3052.91749	1.00839
3050.98893	1.00778
3049.06036	1.00434
3047.13180	0.99845
3045.20323	0.99163
3043.27467	0.98620
3041.34610	0.98199
3039.41754	0.97656
3037.48898	0.97007
3035.56041	0.96548
3033.63185	0.96281
3031.70328	0.95921
3029.77472	0.95603
3027.84615	0.95508
3025.91759	0.95297
3023.98903	0.94841
3022.06046	0.94515
3020.13190	0.94445
3018.20333	0.94338
3016.27477	0.94068
3014.34620	0.93735
3012.41764	0.93424
3010.48907	0.93262
3008.56051	0.93178
3006.63195	0.93018
3004.70338	0.92905
3002.77482	0.92803
3000.84625	0.92573
2998.91769	0.92477
2996.98912	0.92656
2995.06056	0.92879
2993.13199	0.93119
2991.20343	0.93447
2989.27487	0.93712
2987.34630	0.93909
2985.41774	0.94181
2983.48917	0.94494
2981.56061	0.94895
2979.63204	0.95506
2977.70348	0.96178
2975.77491	0.96697
2973.84635	0.97123
2971.91779	0.97697
2969.98922	0.98378
2968.06066	0.98854
2966.13209	0.99154
2964.20353	0.99485
2962.27496	0.99728
2960.34640	0.99684
2958.41783	0.99322
2956.48927	0.98764
2954.56071	0.98214
2952.63214	0.97813
2950.70358	0.97557
2948.77501	0.97421
2946.84645	0.97423
2944.91788	0.97614
2942.98932	0.98069
2941.06075	0.98709
2939.13219	0.99329
2937.20363	0.99852
2935.27506	1.00357
2933.34650	1.00954
2931.41793	1.01558
2929.48937	1.01904
2927.56080	1.01999
2925.63224	1.02082
2923.70367	1.02141
2921.77511	1.02015
2919.84655	1.01691
2917.91798	1.01114
2915.98942	1.00100
2914.06085	0.98751
2912.13229	0.97438
2910.20372	0.96259
2908.27516	0.95235
2906.34659	0.94511
2904.41803	0.93934
2902.48947	0.93301
2900.56090	0.92723
2898.63234	0.92317
2896.70377	0.92090
2894.77521	0.91977
2892.84664	0.91779
2890.91808	0.91387
2888.98952	0.90978
2887.06095	0.90773
2885.13239	0.90711
2883.20382	0.90636
2881.27526	0.90627
2879.34669	0.90753
2877.41813	0.90862
2875.48956	0.90871
2873.56100	0.90824
2871.63244	0.90609
2869.70387	0.90146
2867.77531	0.89616
2865.84674	0.89086
2863.91818	0.88525
2861.98961	0.88100
2860.06105	0.87938
2858.13248	0.87966
2856.20392	0.88047
2854.27536	0.88127
2852.34679	0.88200
2850.41823	0.87949
2848.48966	0.86904
2846.56110	0.85214
2844.63253	0.83512
2842.70397	0.82125
2840.77540	0.81053
2838.84684	0.80253
2836.91828	0.79589
2834.98971	0.78996
2833.06115	0.78551
2831.13258	0.78152
2829.20402	0.77689
2827.27545	0.77299
2825.34689	0.77020
2823.41832	0.76714
2821.48976	0.76337
2819.56120	0.76009
2817.63263	0.75798
2815.70407	0.75542
2813.77550	0.75167
2811.84694	0.74819
2809.91837	0.74523
2807.98981	0.74194
2806.06124	0.73879
2804.13268	0.73627
2802.20412	0.73328
2800.27555	0.72937
2798.34699	0.72580
2796.41842	0.72333
2794.48986	0.72126
2792.56129	0.71874
2790.63273	0.71590
2788.70416	0.71333
2786.77560	0.71114
2784.84704	0.70859
2782.91847	0.70564
2780.98991	0.70351
2779.06134	0.70201
2777.13278	0.69992
2775.20421	0.69743
2773.27565	0.69487
2771.34708	0.69192
2769.41852	0.68837
2767.48996	0.68471
2765.56139	0.68245
2763.63283	0.68153
2761.70426	0.67960
2759.77570	0.67625
2757.84713	0.67304
2755.91857	0.67045
2753.99001	0.66788
2752.06144	0.66496
2750.13288	0.66223
2748.20431	0.66006
2746.27575	0.65757
2744.34718	0.65471
2742.41862	0.65237
2740.49005	0.65033
2738.56149	0.64841
2736.63293	0.64750
2734.70436	0.64718
2732.77580	0.64585
2730.84723	0.64397
2728.91867	0.64271
2726.99010	0.64140
2725.06154	0.63965
2723.13297	0.63824
2721.20441	0.63704
2719.27585	0.63567
2717.34728	0.63421
2715.41872	0.63256
2713.49015	0.63073
2711.56159	0.62871
2709.63302	0.62657
2707.70446	0.62457
2705.77589	0.62274
2703.84733	0.62097
2701.91877	0.61923
2699.99020	0.61751
2698.06164	0.61552
2696.13307	0.61334
2694.20451	0.61129
2692.27594	0.60889
2690.34738	0.60600
2688.41881	0.60362
2686.49025	0.60231
2684.56169	0.60129
2682.63312	0.59972
2680.70456	0.59813
2678.77599	0.59721
2676.84743	0.59621
2674.91886	0.59465
2672.99030	0.59369
2671.06173	0.59388
2669.13317	0.59388
2667.20461	0.59286
2665.27604	0.59176
2663.34748	0.59146
2661.41891	0.59163
2659.49035	0.59174
2657.56178	0.59169
2655.63322	0.59138
2653.70465	0.59075
2651.77609	0.59010
2649.84753	0.58944
2647.91896	0.58827
2645.99040	0.58656
2644.06183	0.58489
2642.13327	0.58326
2640.20470	0.58168
2638.27614	0.58054
2636.34757	0.57965
2634.41901	0.57802
2632.49045	0.57542
2630.56188	0.57280
2628.63332	0.57071
2626.70475	0.56881
2624.77619	0.56705
2622.84762	0.56569
2620.91906	0.56459
2618.99049	0.56310
2617.06193	0.56117
2615.13337	0.55954
2613.20480	0.55876
2611.27624	0.55851
2609.34767	0.55787
2607.41911	0.55675
2605.49054	0.55590
2603.56198	0.55552
2601.63342	0.55572
2599.70485	0.55620
2597.77629	0.55602
2595.84772	0.55519
2593.91916	0.55434
2591.99059	0.55346
2590.06203	0.55250
2588.13346	0.55158
2586.20490	0.55096
2584.27634	0.55060
2582.34777	0.54982
2580.41921	0.54851
2578.49064	0.54686
2576.56208	0.54470
2574.63351	0.54238
2572.70495	0.54019
2570.77638	0.53771
2568.84782	0.53505
2566.91926	0.53247
2564.99069	0.53008
2563.06213	0.52815
2561.13356	0.52622
2559.20500	0.52365
2557.27643	0.52107
2555.34787	0.51937
2553.41930	0.51844
2551.49074	0.51754
2549.56218	0.51635
2547.63361	0.51518
2545.70505	0.51434
2543.77648	0.51360
2541.84792	0.51301
2539.91935	0.51300
2537.99079	0.51346
2536.06222	0.51386
2534.13366	0.51369
2532.20510	0.51307
2530.27653	0.51267
2528.34797	0.51248
2526.41940	0.51208
2524.49084	0.51141
2522.56227	0.51069
2520.63371	0.51000
2518.70514	0.50890
2516.77658	0.50706
2514.84802	0.50524
2512.91945	0.50380
2510.99089	0.50191
2509.06232	0.49958
2507.13376	0.49749
2505.20519	0.49540
2503.27663	0.49329
2501.34806	0.49136
2499.41950	0.48939
2497.49094	0.48747
2495.56237	0.48583
2493.63381	0.48425
2491.70524	0.48291
2489.77668	0.48201
2487.84811	0.48103
2485.91955	0.47981
2483.99098	0.47885
2482.06242	0.47849
2480.13386	0.47863
2478.20529	0.47882
2476.27673	0.47845
2474.34816	0.47747
2472.41960	0.47675
2470.49103	0.47668
2468.56247	0.47673
2466.63391	0.47661
2464.70534	0.47642
2462.77678	0.47617
2460.84821	0.47566
2458.91965	0.47492
2456.99108	0.47406
2455.06252	0.47287
2453.13395	0.47113
2451.20539	0.46918
2449.27683	0.46747
2447.34826	0.46587
2445.41970	0.46418
2443.49113	0.46257
2441.56257	0.46119
2439.63400	0.45969
2437.70544	0.45786
2435.77687	0.45622
2433.84831	0.45491
2431.91975	0.45348
2429.99118	0.45207
2428.06262	0.45093
2426.13405	0.44984
2424.20549	0.44878
2422.27692	0.44787
2420.34836	0.44712
2418.41979	0.44672
2416.49123	0.44681
2414.56267	0.44704
2412.63410	0.44688
2410.70554	0.44641
2408.77697	0.44601
2406.84841	0.44554
2404.91984	0.44487
2402.99128	0.44409
2401.06271	0.44303
2399.13415	0.44181
2397.20559	0.44094
2395.27702	0.44018
2393.34846	0.43901
2391.41989	0.43752
2389.49133	0.43586
2387.56276	0.43398
2385.63420	0.43188
2383.70563	0.42961
2381.77707	0.42740
2379.84851	0.42551
2377.91994	0.42362
2375.99138	0.42121
2374.06281	0.41848
2372.13425	0.41598
2370.20568	0.41361
2368.27712	0.41070
2366.34855	0.40704
2364.41999	0.40455
2362.49143	0.40472
2360.56286	0.40515
2358.63430	0.40367
2356.70573	0.40185
2354.77717	0.40089
2352.84860	0.40009
2350.92004	0.39978
2348.99147	0.39969
2347.06291	0.39858
2345.13435	0.39658
2343.20578	0.39639
2341.27722	0.39826
2339.34865	0.39939
2337.42009	0.39942
2335.49152	0.39962
2333.56296	0.39945
2331.63440	0.39733
2329.70583	0.39462
2327.77727	0.39322
2325.84870	0.39190
2323.92014	0.39028
2321.99157	0.38946
2320.06301	0.38895
2318.13444	0.38817
2316.20588	0.38720
2314.27732	0.38572
2312.34875	0.38396
2310.42019	0.38249
2308.49162	0.38154
2306.56306	0.38110
2304.63449	0.38070
2302.70593	0.38000
2300.77736	0.37910
2298.84880	0.37824
2296.92024	0.37790
2294.99167	0.37801
2293.06311	0.37787
2291.13454	0.37746
2289.20598	0.37710
2287.27741	0.37690
2285.34885	0.37713
2283.42028	0.37758
2281.49172	0.37741
2279.56316	0.37668
2277.63459	0.37617
2275.70603	0.37587
2273.77746	0.37552
2271.84890	0.37535
2269.92033	0.37535
2267.99177	0.37524
2266.06320	0.37509
2264.13464	0.37512
2262.20608	0.37510
2260.27751	0.37486
2258.34895	0.37452
2256.42038	0.37419
2254.49182	0.37393
2252.56325	0.37362
2250.63469	0.37314
2248.70612	0.37267
2246.77756	0.37235
2244.84900	0.37202
2242.92043	0.37145
2240.99187	0.37074
2239.06330	0.37012
2237.13474	0.36950
2235.20617	0.36865
2233.27761	0.36783
2231.34904	0.36733
2229.42048	0.36680
2227.49192	0.36592
2225.56335	0.36500
2223.63479	0.36440
2221.70622	0.36385
2219.77766	0.36303
2217.84909	0.36200
2215.92053	0.36099
2213.99196	0.36017
2212.06340	0.35935
2210.13484	0.35843
2208.20627	0.35760
2206.27771	0.35677
2204.34914	0.35599
2202.42058	0.35558
2200.49201	0.35543
2198.56345	0.35508
2196.63488	0.35453
2194.70632	0.35421
2192.77776	0.35413
2190.84919	0.35386
2188.92063	0.35348
2186.99206	0.35331
2185.06350	0.35306
2183.13493	0.35237
2181.20637	0.35152
2179.27781	0.35090
2177.34924	0.35044
2175.42068	0.34995
2173.49211	0.34940
2171.56355	0.34860
2169.63498	0.34747
2167.70642	0.34643
2165.77785	0.34570
2163.84929	0.34490
2161.92073	0.34392
2159.99216	0.34307
2158.06360	0.34229
2156.13503	0.34139
2154.20647	0.34054
2152.27790	0.33990
2150.34934	0.33917
2148.42077	0.33831
2146.49221	0.33769
2144.56365	0.33742
2142.63508	0.33734
2140.70652	0.33728
2138.77795	0.33705
2136.84939	0.33675
2134.92082	0.33657
2132.99226	0.33640
2131.06369	0.33605
2129.13513	0.33541
2127.20657	0.33466
2125.27800	0.33410
2123.34944	0.33364
2121.42087	0.33298
2119.49231	0.33209
2117.56374	0.33122
2115.63518	0.33049
2113.70661	0.32967
2111.77805	0.32855
2109.84949	0.32711
2107.92092	0.32553
2105.99236	0.32402
2104.06379	0.32264
2102.13523	0.32140
2100.20666	0.32022
2098.27810	0.31890
2096.34953	0.31751
2094.42097	0.31641
2092.49241	0.31573
2090.56384	0.31516
2088.63528	0.31448
2086.70671	0.31385
2084.77815	0.31357
2082.84958	0.31351
2080.92102	0.31346
2078.99245	0.31350
2077.06389	0.31376
2075.13533	0.31417
2073.20676	0.31450
2071.27820	0.31458
2069.34963	0.31473
2067.42107	0.31527
2065.49250	0.31601
2063.56394	0.31657
2061.63537	0.31688
2059.70681	0.31716
2057.77825	0.31756
2055.84968	0.31770
2053.92112	0.31747
2051.99255	0.31732
2050.06399	0.31728
2048.13542	0.31693
2046.20686	0.31626
2044.27830	0.31571
2042.34973	0.31530
2040.42117	0.31479
2038.49260	0.31418
2036.56404	0.31354
2034.63547	0.31287
2032.70691	0.31222
2030.77834	0.31157
2028.84978	0.31094
2026.92122	0.31045
2024.99265	0.31010
2023.06409	0.30982
2021.13552	0.30950
2019.20696	0.30901
2017.27839	0.30846
2015.34983	0.30813
2013.42126	0.30808
2011.49270	0.30817
2009.56414	0.30824
2007.63557	0.30806
2005.70701	0.30764
2003.77844	0.30732
2001.84988	0.30729
1999.92131	0.30719
1997.99275	0.30666
1996.06418	0.30599
1994.13562	0.30543
1992.20706	0.30476
1990.27849	0.30392
1988.34993	0.30307
1986.42136	0.30207
1984.49280	0.30085
1982.56423	0.29960
1980.63567	0.29827
1978.70710	0.29675
1976.77854	0.29529
1974.84998	0.29390
1972.92141	0.29237
1970.99285	0.29092
1969.06428	0.28968
1967.13572	0.28849
1965.20715	0.28727
1963.27859	0.28616
1961.35002	0.28533
1959.42146	0.28463
1957.49290	0.28387
1955.56433	0.28317
1953.63577	0.28265
1951.70720	0.28213
1949.77864	0.28153
1947.85007	0.28091
1945.92151	0.28039
1943.99294	0.28006
1942.06438	0.27969
1940.13582	0.27914
1938.20725	0.27852
1936.27869	0.27811
1934.35012	0.27797
1932.42156	0.27779
1930.49299	0.27732
1928.56443	0.27670
1926.63586	0.27629
1924.70730	0.27607
1922.77874	0.27561
1920.85017	0.27493
1918.92161	0.27439
1916.99304	0.27386
1915.06448	0.27323
1913.13591	0.27266
1911.20735	0.27206
1909.27878	0.27129
1907.35022	0.27044
1905.42166	0.26968
1903.49309	0.26912
1901.56453	0.26871
1899.63596	0.26824
1897.70740	0.26776
1895.77883	0.26740
1893.85027	0.26707
1891.92171	0.26659
1889.99314	0.26592
1888.06458	0.26524
1886.13601	0.26460
1884.20745	0.26389
1882.27888	0.26329
1880.35032	0.26282
1878.42175	0.26217
1876.49319	0.26147
1874.56463	0.26095
1872.63606	0.26054
1870.70750	0.26010
1868.77893	0.25954
1866.85037	0.25881
1864.92180	0.25810
1862.99324	0.25746
1861.06467	0.25672
1859.13611	0.25592
1857.20755	0.25520
1855.27898	0.25440
1853.35042	0.25345
1851.42185	0.25256
1849.49329	0.25184
1847.56472	0.25103
1845.63616	0.25008
1843.70759	0.24919
1841.77903	0.24857
1839.85047	0.24810
1837.92190	0.24762
1835.99334	0.24711
1834.06477	0.24656
1832.13621	0.24606
1830.20764	0.24573
1828.27908	0.24555
1826.35051	0.24526
1824.42195	0.24482
1822.49339	0.24448
1820.56482	0.24428
1818.63626	0.24409
1816.70769	0.24379
1814.77913	0.24346
1812.85056	0.24319
1810.92200	0.24300
1808.99343	0.24295
1807.06487	0.24282
1805.13631	0.24261
1803.20774	0.24253
1801.27918	0.24287
1799.35061	0.24346
1797.42205	0.24384
1795.49348	0.24409
1793.56492	0.24432
1791.63635	0.24447
1789.70779	0.24440
1787.77923	0.24430
1785.85066	0.24431
1783.92210	0.24439
1781.99353	0.24470
1780.06497	0.24535
1778.13640	0.24594
1776.20784	0.24613
1774.27927	0.24637
1772.35071	0.24744
1770.42215	0.24899
1768.49358	0.25036
1766.56502	0.25172
1764.63645	0.25316
1762.70789	0.25525
1760.77932	0.25826
1758.85076	0.26150
1756.92220	0.26553
1754.99363	0.26993
1753.06507	0.27445
1751.13650	0.28120
1749.20794	0.29056
1747.27937	0.29906
1745.35081	0.30602
1743.42224	0.31234
1741.49368	0.31868
1739.56512	0.32506
1737.63655	0.32974
1735.70799	0.33377
1733.77942	0.34069
1731.85086	0.34713
1729.92229	0.35193
1727.99373	0.35742
1726.06516	0.36348
1724.13660	0.37087
1722.20804	0.37865
1720.27947	0.38606
1718.35091	0.39763
1716.42234	0.41768
1714.49378	0.43564
1712.56521	0.45047
1710.63665	0.46704
1708.70808	0.48702
1706.77952	0.51586
1704.85096	0.55372
1702.92239	0.58792
1700.99383	0.63284
1699.06526	0.70207
1697.13670	0.76396
1695.20813	0.82070
1693.27957	0.86165
1691.35100	0.89263
1689.42244	0.92915
1687.49388	0.96248
1685.56531	0.99444
1683.63675	1.04018
1681.70818	1.07038
1679.77962	1.08411
1677.85105	1.09423
1675.92249	1.10487
1673.99392	1.11636
1672.06536	1.12532
1670.13680	1.13189
1668.20823	1.13825
1666.27967	1.14187
1664.35110	1.14360
1662.42254	1.14342
1660.49397	1.14158
1658.56541	1.14014
1656.63684	1.13772
1654.70828	1.13454
1652.77972	1.13137
1650.85115	1.13007
1648.92259	1.12825
1646.99402	1.12257
1645.06546	1.11644
1643.13689	1.11180
1641.20833	1.10803
1639.27976	1.10425
1637.35120	1.09980
1635.42264	1.09606
1633.49407	1.09252
1631.56551	1.08848
1629.63694	1.08334
1627.70838	1.07643
1625.77981	1.06828
1623.85125	1.05853
1621.92269	1.04632
1619.99412	1.03466
1618.06556	1.02057
1616.13699	0.99861
1614.20843	0.97768
1612.27986	0.95865
1610.35130	0.93836
1608.42273	0.91904
1606.49417	0.90280
1604.56561	0.88904
1602.63704	0.87712
1600.70848	0.86804
1598.77991	0.86214
1596.85135	0.85840
1594.92278	0.85561
1592.99422	0.85385
1591.06565	0.85409
1589.13709	0.85663
1587.20853	0.86168
1585.27996	0.86897
1583.35140	0.87828
1581.42283	0.88901
1579.49427	0.89947
1577.56570	0.91194
1575.63714	0.92937
1573.70857	0.94175
1571.78001	0.95038
1569.85145	0.96402
1567.92288	0.97932
1565.99432	0.99019
1564.06575	0.99990
1562.13719	1.00759
1560.20862	1.01579
1558.28006	1.03264
1556.35149	1.04184
1554.42293	1.04533
1552.49437	1.04709
1550.56580	1.04626
1548.63724	1.04408
1546.70867	1.04258
1544.78011	1.04019
1542.85154	1.03568
1540.92298	1.03141
1538.99441	1.02420
1537.06585	1.01756
1535.13729	1.01095
1533.20872	1.00175
1531.28016	0.99278
1529.35159	0.98571
1527.42303	0.97836
1525.49446	0.97167
1523.56590	0.96767
1521.63733	0.96403
1519.70877	0.96009
1517.78021	0.95374
1515.85164	0.94246
1513.92308	0.92945
1511.99451	0.91657
1510.06595	0.90465
1508.13738	0.88784
1506.20882	0.85633
1504.28025	0.83744
1502.35169	0.82539
1500.42313	0.81150
1498.49456	0.79400
1496.56600	0.77400
1494.63743	0.75768
1492.70887	0.74513
1490.78030	0.73023
1488.85174	0.71228
1486.92317	0.69998
1484.99461	0.69247
1483.06605	0.68716
1481.13748	0.68425
1479.20892	0.68431
1477.28035	0.68773
1475.35179	0.69545
1473.42322	0.71012
1471.49466	0.72673
1469.56610	0.73573
1467.63753	0.74138
1465.70897	0.74836
1463.78040	0.75635
1461.85184	0.76177
1459.92327	0.76556
1457.99471	0.77220
1456.06614	0.78080
1454.13758	0.78293
1452.20902	0.78199
1450.28045	0.78038
1448.35189	0.77840
1446.42332	0.77564
1444.49476	0.77186
1442.56619	0.76731
1440.63763	0.76298
1438.70906	0.75844
1436.78050	0.75111
1434.85194	0.74253
1432.92337	0.73589
1430.99481	0.73009
1429.06624	0.72527
1427.13768	0.72230
1425.20911	0.72105
1423.28055	0.72146
1421.35198	0.72325
1419.42342	0.72763
1417.49486	0.73308
1415.56629	0.73518
1413.63773	0.73582
1411.70916	0.73708
1409.78060	0.73955
1407.85203	0.74273
1405.92347	0.74636
1403.99490	0.75000
1402.06634	0.75272
1400.13778	0.75507
1398.20921	0.75711
1396.28065	0.75802
1394.35208	0.75844
1392.42352	0.75948
1390.49495	0.76149
1388.56639	0.76607
1386.63782	0.77407
1384.70926	0.78182
1382.78070	0.78740
1380.85213	0.79015
1378.92357	0.78865
1376.99500	0.78255
1375.06644	0.77089
1373.13787	0.75561
1371.20931	0.74181
1369.28074	0.72766
1367.35218	0.71169
1365.42362	0.69690
1363.49505	0.68359
1361.56649	0.67261
1359.63792	0.66592
1357.70936	0.66231
1355.78079	0.66048
1353.85223	0.65994
1351.92366	0.66056
1349.99510	0.66219
1348.06654	0.66483
1346.13797	0.66839
1344.20941	0.67239
1342.28084	0.67676
1340.35228	0.68234
1338.42371	0.68891
1336.49515	0.69557
1334.56659	0.70322
1332.63802	0.71203
1330.70946	0.72050
1328.78089	0.72701
1326.85233	0.73103
1324.92376	0.73315
1322.99520	0.73447
1321.06663	0.73597
1319.13807	0.73764
1317.20951	0.73861
1315.28094	0.73819
1313.35238	0.73662
1311.42381	0.73492
1309.49525	0.73339
1307.56668	0.73125
1305.63812	0.72812
1303.70955	0.72462
1301.78099	0.72114
1299.85243	0.71716
1297.92386	0.71244
1295.99530	0.70788
1294.06673	0.70462
1292.13817	0.70317
1290.20960	0.70344
1288.28104	0.70478
1286.35247	0.70626
1284.42391	0.70752
1282.49535	0.70911
1280.56678	0.71129
1278.63822	0.71377
1276.70965	0.71677
1274.78109	0.72045
1272.85252	0.72462
1270.92396	0.72933
1268.99539	0.73411
1267.06683	0.73761
1265.13827	0.73899
1263.20970	0.73870
1261.28114	0.73739
1259.35257	0.73517
1257.42401	0.73234
1255.49544	0.72972
1253.56688	0.72773
1251.63831	0.72617
1249.70975	0.72475
1247.78119	0.72340
1245.85262	0.72213
1243.92406	0.72110
1241.99549	0.72059
1240.06693	0.71995
1238.13836	0.71850
1236.20980	0.71654
1234.28123	0.71425
1232.35267	0.71174
1230.42411	0.70926
1228.49554	0.70664
1226.56698	0.70358
1224.63841	0.70016
1222.70985	0.69691
1220.78128	0.69464
1218.85272	0.69384
1216.92415	0.69410
1214.99559	0.69510
1213.06703	0.69728
1211.13846	0.70070
1209.20990	0.70438
1207.28133	0.70647
1205.35277	0.70534
1203.42420	0.70042
1201.49564	0.69235
1199.56708	0.68259
1197.63851	0.67275
1195.70995	0.66335
1193.78138	0.65390
1191.85282	0.64486
1189.92425	0.63747
1187.99569	0.63256
1186.06712	0.63018
1184.13856	0.62945
1182.21000	0.63005
1180.28143	0.63276
1178.35287	0.63818
1176.42430	0.64642
1174.49574	0.65671
1172.56717	0.66810
1170.63861	0.68102
1168.71004	0.69604
1166.78148	0.71254
1164.85292	0.72923
1162.92435	0.74478
1160.99579	0.75762
1159.06722	0.76625
1157.13866	0.77012
1155.21009	0.76953
1153.28153	0.76578
1151.35296	0.76068
1149.42440	0.75516
1147.49584	0.74994
1145.56727	0.74631
1143.63871	0.74524
1141.71014	0.74658
1139.78158	0.74964
1137.85301	0.75407
1135.92445	0.75991
1133.99588	0.76737
1132.06732	0.77653
1130.13876	0.78750
1128.21019	0.79968
1126.28163	0.81108
1124.35306	0.82034
1122.42450	0.82756
1120.49593	0.83282
1118.56737	0.83587
1116.63880	0.83626
1114.71024	0.83412
1112.78168	0.83036
1110.85311	0.82581
1108.92455	0.82126
1106.99598	0.81751
1105.06742	0.81554
1103.13885	0.81600
1101.21029	0.81859
1099.28172	0.82326
1097.35316	0.83078
1095.42460	0.84113
1093.49603	0.85317
1091.56747	0.86606
1089.63890	0.87994
1087.71034	0.89457
1085.78177	0.90876
1083.85321	0.92197
1081.92464	0.93231
1079.99608	0.93686
1078.06752	0.93656
1076.13895	0.93362
1074.21039	0.92832
1072.28182	0.92131
1070.35326	0.91301
1068.42469	0.90344
1066.49613	0.89328
1064.56756	0.88275
1062.63900	0.87140
1060.71044	0.85963
1058.78187	0.84908
1056.85331	0.84039
1054.92474	0.83313
1052.99618	0.82760
1051.06761	0.82382
1049.13905	0.82171
1047.21049	0.82218
1045.28192	0.82528
1043.35336	0.82984
1041.42479	0.83494
1039.49623	0.84013
1037.56766	0.84503
1035.63910	0.84891
1033.71053	0.85116
1031.78197	0.85145
1029.85341	0.84955
1027.92484	0.84629
1025.99628	0.84293
1024.06771	0.83992
1022.13915	0.83715
1020.21058	0.83486
1018.28202	0.83320
1016.35345	0.83110
1014.42489	0.82652
1012.49633	0.81764
1010.56776	0.80440
1008.63920	0.78779
1006.71063	0.76870
1004.78207	0.74885
1002.85350	0.72994
1000.92494	0.71225
998.99637	0.69547
997.06781	0.67942
995.13925	0.66373
993.21068	0.64796
991.28212	0.63198
989.35355	0.61552
987.42499	0.59890
985.49642	0.58340
983.56786	0.56994
981.63929	0.55887
979.71073	0.55069
977.78217	0.54498
975.85360	0.54025
973.92504	0.53580
971.99647	0.53190
970.06791	0.52867
968.13934	0.52683
966.21078	0.52790
964.28221	0.53276
962.35365	0.54174
960.42509	0.55565
958.49652	0.57459
956.56796	0.59541
954.63939	0.61322
952.71083	0.62535
950.78226	0.63199
948.85370	0.63473
946.92513	0.63519
944.99657	0.63425
943.06801	0.63216
941.13944	0.62886
939.21088	0.62404
937.28231	0.61686
935.35375	0.60693
933.42518	0.59545
931.49662	0.58386
929.56805	0.57289
927.63949	0.56308
925.71093	0.55448
923.78236	0.54647
921.85380	0.53857
919.92523	0.53098
917.99667	0.52441
916.06810	0.51948
914.13954	0.51640
912.21098	0.51549
910.28241	0.51696
908.35385	0.52078
906.42528	0.52732
904.49672	0.53659
902.56815	0.54736
900.63959	0.55776
898.71102	0.56712
896.78246	0.57592
894.85390	0.58401
892.92533	0.59064
890.99677	0.59532
889.06820	0.59819
887.13964	0.59973
885.21107	0.60035
883.28251	0.60014
881.35394	0.59897
879.42538	0.59655
877.49682	0.59272
875.56825	0.58771
873.63969	0.58157
871.71112	0.57428
869.78256	0.56674
867.85399	0.55977
865.92543	0.55353
863.99686	0.54834
862.06830	0.54445
860.13974	0.54205
858.21117	0.54155
856.28261	0.54286
854.35404	0.54536
852.42548	0.54883
850.49691	0.55316
848.56835	0.55804
846.63978	0.56364
844.71122	0.57027
842.78266	0.57810
840.85409	0.58689
838.92553	0.59610
836.99696	0.60570
835.06840	0.61552
833.13983	0.62471
831.21127	0.63287
829.28270	0.63987
827.35414	0.64534
825.42558	0.64918
823.49701	0.65134
821.56845	0.65220
819.63988	0.65219
817.71132	0.65023
815.78275	0.64577
813.85419	0.63981
811.92562	0.63273
809.99706	0.62450
808.06850	0.61540
806.13993	0.60572
804.21137	0.59638
802.28280	0.58777
800.35424	0.57985
798.42567	0.57314
796.49711	0.56750
794.56854	0.56284
792.63998	0.56006
790.71142	0.55952
788.78285	0.56144
786.85429	0.56581
784.92572	0.57150
782.99716	0.57788
781.06859	0.58565
779.14003	0.59523
777.21147	0.60627
775.28290	0.61840
773.35434	0.63090
771.42577	0.64280
769.49721	0.65362
767.56864	0.66356
765.64008	0.67285
763.71151	0.68155
761.78295	0.68891
759.85439	0.69387
757.92582	0.69690
755.99726	0.69857
754.06869	0.69854
752.14013	0.69744
750.21156	0.69605
748.28300	0.69401
746.35443	0.69051
744.42587	0.68561
742.49731	0.68044
740.56874	0.67587
738.64018	0.67157
736.71161	0.66687
734.78305	0.66262
732.85448	0.66035
730.92592	0.66047
728.99735	0.66250
727.06879	0.66554
725.14023	0.66890
723.21166	0.67310
721.28310	0.67896
719.35453	0.68537
717.42597	0.69096
715.49740	0.69717
713.56884	0.70539
711.64027	0.71470
709.71171	0.72428
707.78315	0.73412
705.85458	0.74354
703.92602	0.75172
701.99745	0.75906
700.06889	0.76601
698.14032	0.77179
696.21176	0.77648
694.28319	0.78219
692.35463	0.78886
690.42607	0.79317
688.49750	0.79453
686.56894	0.79533
684.64037	0.79519
682.71181	0.79219
680.78324	0.78711
678.85468	0.78170
676.92611	0.77565
674.99755	0.76749
673.06899	0.75807
671.14042	0.74950
669.21186	0.73763
667.28329	0.71995
665.35473	0.70833
663.42616	0.70052
661.49760	0.69317
659.56903	0.68600
657.64047	0.67782
655.71191	0.66969
653.78334	0.66428
651.85478	0.66167
649.92621	0.66079
647.99765	0.66073
646.06908	0.66124
644.14052	0.66433
642.21195	0.67073
640.28339	0.67834
638.35483	0.68582
636.42626	0.69432
634.49770	0.70515
632.56913	0.71795
630.64057	0.73307
628.71200	0.74949
626.78344	0.76359
624.85488	0.77530
622.92631	0.78694
620.99775	0.79835
619.06918	0.80917
617.14062	0.81877
615.21205	0.82595
613.28349	0.83165
611.35492	0.83646
609.42636	0.83989
607.49780	0.84073
605.56923	0.83856
603.64067	0.83526
601.71210	0.82877
599.78354	0.81541
