3997.91406	0.36285
3995.98550	0.36313
3994.05693	0.36314
3992.12837	0.36359
3990.19980	0.36407
3988.27124	0.36315
3986.34268	0.36136
3984.41411	0.36022
3982.48555	0.35997
3980.55698	0.36021
3978.62842	0.36031
3976.69985	0.35970
3974.77129	0.35882
3972.84272	0.35827
3970.91416	0.35838
3968.98560	0.35926
3967.05703	0.35995
3965.12847	0.35968
3963.19990	0.35918
3961.27134	0.35877
3959.34277	0.35830
3957.41421	0.35807
3955.48564	0.35757
3953.55708	0.35615
3951.62852	0.35476
3949.69995	0.35515
3947.77139	0.35633
3945.84282	0.35586
3943.91426	0.35516
3941.98569	0.35534
3940.05713	0.35516
3938.12856	0.35519
3936.20000	0.35585
3934.27144	0.35694
3932.34287	0.35828
3930.41431	0.35789
3928.48574	0.35502
3926.55718	0.35242
3924.62861	0.35231
3922.70005	0.35255
3920.77148	0.35185
3918.84292	0.35204
3916.91436	0.35293
3914.98579	0.35265
3913.05723	0.35161
3911.12866	0.35111
3909.20010	0.35012
3907.27153	0.34801
3905.34297	0.34692
3903.41440	0.34779
3901.48584	0.34944
3899.55728	0.35121
3897.62871	0.35079
3895.70015	0.34838
3893.77158	0.34762
3891.84302	0.35075
3889.91445	0.35113
3887.98589	0.34671
3886.05733	0.34472
3884.12876	0.34603
3882.20020	0.34609
3880.27163	0.34740
3878.34307	0.34736
3876.41450	0.34483
3874.48594	0.34413
3872.55737	0.34533
3870.62881	0.34741
3868.70025	0.34828
3866.77168	0.34530
3864.84312	0.34376
3862.91455	0.34543
3860.98599	0.34440
3859.05742	0.34076
3857.12886	0.33734
3855.20029	0.33896
3853.27173	0.34951
3851.34317	0.34998
3849.41460	0.34290
3847.48604	0.33731
3845.55747	0.33458
3843.62891	0.33421
3841.70034	0.33442
3839.77178	0.33598
3837.84321	0.33975
3835.91465	0.34171
3833.98609	0.34230
3832.05752	0.34215
3830.12896	0.33955
3828.20039	0.33687
3826.27183	0.33626
3824.34326	0.33461
3822.41470	0.33361
3820.48613	0.33672
3818.55757	0.33624
3816.62901	0.33510
3814.70044	0.33560
3812.77188	0.33315
3810.84331	0.32929
3808.91475	0.32771
3806.98618	0.33034
3805.05762	0.33080
3803.12905	0.32884
3801.20049	0.33143
3799.27193	0.33307
3797.34336	0.33273
3795.41480	0.33308
3793.48623	0.33125
3791.55767	0.32864
3789.62910	0.32754
3787.70054	0.32734
3785.77197	0.32802
3783.84341	0.32833
3781.91485	0.32682
3779.98628	0.32669
3778.05772	0.32836
3776.12915	0.32795
3774.20059	0.32597
3772.27202	0.32500
3770.34346	0.32694
3768.41489	0.32896
3766.48633	0.32859
3764.55777	0.32691
3762.62920	0.32338
3760.70064	0.32081
3758.77207	0.32280
3756.84351	0.32438
3754.91494	0.32228
3752.98638	0.32017
3751.05781	0.32278
3749.12925	0.32494
3747.20069	0.32380
3745.27212	0.32668
3743.34356	0.33025
3741.41499	0.32711
3739.48643	0.32212
3737.55786	0.32000
3735.62930	0.32328
3733.70074	0.32757
3731.77217	0.32648
3729.84361	0.32234
3727.91504	0.32001
3725.98648	0.32197
3724.05791	0.32428
3722.12935	0.32375
3720.20078	0.32324
3718.27222	0.32310
3716.34366	0.32109
3714.41509	0.31829
3712.48653	0.32007
3710.55796	0.32569
3708.62940	0.32567
3706.70083	0.32305
3704.77227	0.32081
3702.84370	0.32051
3700.91514	0.32234
3698.98658	0.32294
3697.05801	0.32227
3695.12945	0.32089
3693.20088	0.31860
3691.27232	0.31859
3689.34375	0.32503
3687.41519	0.32938
3685.48662	0.32861
3683.55806	0.32758
3681.62950	0.32770
3679.70093	0.32811
3677.77237	0.32963
3675.84380	0.33741
3673.91524	0.34233
3671.98667	0.34028
3670.05811	0.34341
3668.12954	0.34749
3666.20098	0.34643
3664.27242	0.34634
3662.34385	0.34898
3660.41529	0.35183
3658.48672	0.35474
3656.55816	0.36095
3654.62959	0.36580
3652.70103	0.36519
3650.77246	0.36720
3648.84390	0.38164
3646.91534	0.39174
3644.98677	0.39276
3643.05821	0.39287
3641.12964	0.39494
3639.20108	0.39848
3637.27251	0.40226
3635.34395	0.40619
3633.41538	0.40950
3631.48682	0.41190
3629.55826	0.42046
3627.62969	0.43368
3625.70113	0.43786
3623.77256	0.43854
3621.84400	0.44094
3619.91543	0.44860
3617.98687	0.45733
3616.05830	0.46044
3614.12974	0.46458
3612.20118	0.47169
3610.27261	0.47723
3608.34405	0.48328
3606.41548	0.48940
3604.48692	0.49268
3602.55835	0.49691
3600.62979	0.50509
3598.70123	0.51376
3596.77266	0.51979
3594.84410	0.52427
3592.91553	0.52730
3590.98697	0.52895
3589.05840	0.53391
3587.12984	0.54576
3585.20127	0.55525
3583.27271	0.55959
3581.34415	0.56382
3579.41558	0.56907
3577.48702	0.57412
3575.55845	0.58017
3573.62989	0.58714
3571.70132	0.59168
3569.77276	0.59412
3567.84419	0.60188
3565.91563	0.61548
3563.98707	0.62235
3562.05850	0.62623
3560.12994	0.63292
3558.20137	0.64083
3556.27281	0.64724
3554.34424	0.65331
3552.41568	0.66080
3550.48711	0.66729
3548.55855	0.67263
3546.62999	0.67979
3544.70142	0.68804
3542.77286	0.69517
3540.84429	0.70139
3538.91573	0.70775
3536.98716	0.71620
3535.05860	0.72498
3533.13003	0.72989
3531.20147	0.73395
3529.27291	0.74166
3527.34434	0.75051
3525.41578	0.75779
3523.48721	0.76594
3521.55865	0.77540
3519.63008	0.78449
3517.70152	0.79411
3515.77295	0.80456
3513.84439	0.81447
3511.91583	0.82303
3509.98726	0.83147
3508.05870	0.84155
3506.13013	0.85151
3504.20157	0.86065
3502.27300	0.87069
3500.34444	0.88142
3498.41587	0.89236
3496.48731	0.90343
3494.55875	0.91236
3492.63018	0.91860
3490.70162	0.92551
3488.77305	0.93354
3486.84449	0.94068
3484.91592	0.94738
3482.98736	0.95506
3481.05879	0.96314
3479.13023	0.96944
3477.20167	0.97272
3475.27310	0.97403
3473.34454	0.97764
3471.41597	0.98538
3469.48741	0.99284
3467.55884	0.99613
3465.63028	0.99848
3463.70171	1.00544
3461.77315	1.01515
3459.84459	1.02195
3457.91602	1.02556
3455.98746	1.02852
3454.05889	1.03166
3452.13033	1.03738
3450.20176	1.04656
3448.27320	1.05469
3446.34464	1.05837
3444.41607	1.05920
3442.48751	1.06161
3440.55894	1.06572
3438.63038	1.06838
3436.70181	1.07049
3434.77325	1.07282
3432.84468	1.07572
3430.91612	1.07920
3428.98756	1.08060
3427.05899	1.07849
3425.13043	1.07518
3423.20186	1.07468
3421.27330	1.07719
3419.34473	1.07927
3417.41617	1.08090
3415.48760	1.08474
3413.55904	1.08994
3411.63048	1.09462
3409.70191	1.09917
3407.77335	1.10256
3405.84478	1.10492
3403.91622	1.10854
3401.98765	1.11293
3400.05909	1.11511
3398.13052	1.11466
3396.20196	1.11527
3394.27340	1.11922
3392.34483	1.12335
3390.41627	1.12438
3388.48770	1.12391
3386.55914	1.12478
3384.63057	1.12967
3382.70201	1.13796
3380.77344	1.14379
3378.84488	1.14517
3376.91632	1.14540
3374.98775	1.14758
3373.05919	1.15260
3371.13062	1.15833
3369.20206	1.16316
3367.27349	1.16760
3365.34493	1.17035
3363.41636	1.16997
3361.48780	1.16951
3359.55924	1.17104
3357.63067	1.17344
3355.70211	1.17579
3353.77354	1.17732
3351.84498	1.17989
3349.91641	1.18597
3347.98785	1.19335
3346.05928	1.19929
3344.13072	1.20515
3342.20216	1.21168
3340.27359	1.21784
3338.34503	1.22248
3336.41646	1.22404
3334.48790	1.22518
3332.55933	1.22912
3330.63077	1.23458
3328.70220	1.23983
3326.77364	1.24414
3324.84508	1.24896
3322.91651	1.25412
3320.98795	1.25688
3319.05938	1.25975
3317.13082	1.26542
3315.20225	1.26923
3313.27369	1.26913
3311.34513	1.27080
3309.41656	1.27781
3307.48800	1.28869
3305.55943	1.29900
3303.63087	1.30429
3301.70230	1.30700
3299.77374	1.31125
3297.84517	1.31427
3295.91661	1.31363
3293.98805	1.31216
3292.05948	1.31213
3290.13092	1.31270
3288.20235	1.31270
3286.27379	1.31343
3284.34522	1.31452
3282.41666	1.31299
3280.48809	1.31088
3278.55953	1.31075
3276.63097	1.30910
3274.70240	1.30308
3272.77384	1.29610
3270.84527	1.29332
3268.91671	1.29262
3266.98814	1.28740
3265.05958	1.27663
3263.13101	1.26553
3261.20245	1.25909
3259.27389	1.25391
3257.34532	1.24397
3255.41676	1.23470
3253.48819	1.23312
3251.55963	1.23058
3249.63106	1.21774
3247.70250	1.20269
3245.77393	1.19302
3243.84537	1.18481
3241.91681	1.17657
3239.98824	1.17145
3238.05968	1.16794
3236.13111	1.16131
3234.20255	1.15122
3232.27398	1.14174
3230.34542	1.13599
3228.41685	1.13227
3226.48829	1.12782
3224.55973	1.12356
3222.63116	1.11973
3220.70260	1.11452
3218.77403	1.10763
3216.84547	1.10176
3214.91690	1.09877
3212.98834	1.09568
3211.05977	1.09056
3209.13121	1.08541
3207.20265	1.08164
3205.27408	1.07833
3203.34552	1.07436
3201.41695	1.06999
3199.48839	1.06493
3197.55982	1.05935
3195.63126	1.05336
3193.70269	1.04650
3191.77413	1.04042
3189.84557	1.03609
3187.91700	1.03324
3185.98844	1.03150
3184.05987	1.02881
3182.13131	1.02289
3180.20274	1.01403
3178.27418	1.00637
3176.34562	1.00265
3174.41705	1.00008
3172.48849	0.99575
3170.55992	0.98899
3168.63136	0.98087
3166.70279	0.97508
3164.77423	0.97305
3162.84566	0.97143
3160.91710	0.96854
3158.98854	0.96566
3157.05997	0.96267
3155.13141	0.95859
3153.20284	0.95344
3151.27428	0.94827
3149.34571	0.94397
3147.41715	0.93981
3145.48858	0.93586
3143.56002	0.93323
3141.63146	0.93147
3139.70289	0.93051
3137.77433	0.93126
3135.84576	0.93194
3133.91720	0.92960
3131.98863	0.92526
3130.06007	0.92231
3128.13150	0.92240
3126.20294	0.92492
3124.27438	0.92708
3122.34581	0.92616
3120.41725	0.92356
3118.48868	0.92231
3116.56012	0.92272
3114.63155	0.92341
3112.70299	0.92287
3110.77442	0.92150
3108.84586	0.92104
3106.91730	0.92160
3104.98873	0.92206
3103.06017	0.92117
3101.13160	0.91904
3099.20304	0.91647
3097.27447	0.91340
3095.34591	0.91103
3093.41734	0.91078
3091.48878	0.91152
3089.56022	0.91103
3087.63165	0.90849
3085.70309	0.90527
3083.77452	0.90305
3081.84596	0.90196
3079.91739	0.90024
3077.98883	0.89660
3076.06026	0.89232
3074.13170	0.88914
3072.20314	0.88677
3070.27457	0.88421
3068.34601	0.88163
3066.41744	0.87848
3064.48888	0.87416
3062.56031	0.86988
3060.63175	0.86653
3058.70318	0.86352
3056.77462	0.85902
3054.84606	0.85279
3052.91749	0.84719
3050.98893	0.84305
3049.06036	0.83884
3047.13180	0.83334
3045.20323	0.82753
3043.27467	0.82311
3041.34610	0.81975
3039.41754	0.81617
3037.48898	0.81250
3035.56041	0.80943
3033.63185	0.80637
3031.70328	0.80273
3029.77472	0.79944
3027.84615	0.79718
3025.91759	0.79528
3023.98903	0.79255
3022.06046	0.78843
3020.13190	0.78417
3018.20333	0.78144
3016.27477	0.78011
3014.34620	0.77845
3012.41764	0.77555
3010.48907	0.77255
3008.56051	0.77038
3006.63195	0.76838
3004.70338	0.76623
3002.77482	0.76437
3000.84625	0.76242
2998.91769	0.76022
2996.98912	0.75924
2995.06056	0.76022
2993.13199	0.76211
2991.20343	0.76470
2989.27487	0.76935
2987.34630	0.77651
2985.41774	0.78433
2983.48917	0.79210
2981.56061	0.80034
2979.63204	0.80805
2977.70348	0.81515
2975.77491	0.82301
2973.84635	0.83202
2971.91779	0.84181
2969.98922	0.85164
2968.06066	0.86103
2966.13209	0.86984
2964.20353	0.87693
2962.27496	0.88085
2960.34640	0.88180
2958.41783	0.88032
2956.48927	0.87605
2954.56071	0.87028
2952.63214	0.86468
2950.70358	0.85942
2948.77501	0.85573
2946.84645	0.85555
2944.91788	0.85923
2942.98932	0.86590
2941.06075	0.87446
2939.13219	0.88445
2937.20363	0.89629
2935.27506	0.90939
2933.34650	0.92145
2931.41793	0.93098
2929.48937	0.93840
2927.56080	0.94499
2925.63224	0.95163
2923.70367	0.95813
2921.77511	0.96358
2919.84655	0.96582
2917.91798	0.96059
2915.98942	0.94426
2914.06085	0.91961
2912.13229	0.89427
2910.20372	0.87283
2908.27516	0.85565
2906.34659	0.84244
2904.41803	0.83279
2902.48947	0.82510
2900.56090	0.81746
2898.63234	0.80991
2896.70377	0.80390
2894.77521	0.79935
2892.84664	0.79478
2890.91808	0.79005
2888.98952	0.78530
2887.06095	0.78025
2885.13239	0.77598
2883.20382	0.77422
2881.27526	0.77530
2879.34669	0.77752
2877.41813	0.77903
2875.48956	0.77922
2873.56100	0.77718
2871.63244	0.77224
2869.70387	0.76565
2867.77531	0.75910
2865.84674	0.75376
2863.91818	0.75030
2861.98961	0.74918
2860.06105	0.75054
2858.13248	0.75384
2856.20392	0.75950
2854.27536	0.76915
2852.34679	0.78086
2850.41823	0.78582
2848.48966	0.77412
2846.56110	0.74723
2844.63253	0.71792
2842.70397	0.69505
2840.77540	0.67814
2838.84684	0.66479
2836.91828	0.65449
2834.98971	0.64660
2833.06115	0.63993
2831.13258	0.63409
2829.20402	0.62942
2827.27545	0.62579
2825.34689	0.62232
2823.41832	0.61850
2821.48976	0.61463
2819.56120	0.61079
2817.63263	0.60693
2815.70407	0.60338
2813.77550	0.60033
2811.84694	0.59724
2809.91837	0.59316
2807.98981	0.58851
2806.06124	0.58490
2804.13268	0.58234
2802.20412	0.57924
2800.27555	0.57510
2798.34699	0.57114
2796.41842	0.56836
2794.48986	0.56624
2792.56129	0.56383
2790.63273	0.56094
2788.70416	0.55818
2786.77560	0.55607
2784.84704	0.55406
2782.91847	0.55196
2780.98991	0.55004
2779.06134	0.54778
2777.13278	0.54494
2775.20421	0.54222
2773.27565	0.54032
2771.34708	0.53893
2769.41852	0.53724
2767.48996	0.53531
2765.56139	0.53383
2763.63283	0.53285
2761.70426	0.53172
2759.77570	0.52999
2757.84713	0.52765
2755.91857	0.52526
2753.99001	0.52325
2752.06144	0.52141
2750.13288	0.51976
2748.20431	0.51841
2746.27575	0.51726
2744.34718	0.51617
2742.41862	0.51479
2740.49005	0.51294
2738.56149	0.51080
2736.63293	0.50871
2734.70436	0.50674
2732.77580	0.50455
2730.84723	0.50244
2728.91867	0.50115
2726.99010	0.50033
2725.06154	0.49930
2723.13297	0.49817
2721.20441	0.49666
2719.27585	0.49475
2717.34728	0.49320
2715.41872	0.49191
2713.49015	0.49030
2711.56159	0.48867
2709.63302	0.48758
2707.70446	0.48664
2705.77589	0.48521
2703.84733	0.48358
2701.91877	0.48196
2699.99020	0.47999
2698.06164	0.47793
2696.13307	0.47619
2694.20451	0.47465
2692.27594	0.47320
2690.34738	0.47178
2688.41881	0.47002
2686.49025	0.46771
2684.56169	0.46531
2682.63312	0.46335
2680.70456	0.46182
2678.77599	0.46041
2676.84743	0.45879
2674.91886	0.45697
2672.99030	0.45514
2671.06173	0.45344
2669.13317	0.45213
2667.20461	0.45110
2665.27604	0.44975
2663.34748	0.44815
2661.41891	0.44690
2659.49035	0.44577
2657.56178	0.44438
2655.63322	0.44298
2653.70465	0.44172
2651.77609	0.44060
2649.84753	0.43967
2647.91896	0.43860
2645.99040	0.43727
2644.06183	0.43589
2642.13327	0.43430
2640.20470	0.43254
2638.27614	0.43115
2636.34757	0.43019
2634.41901	0.42897
2632.49045	0.42721
2630.56188	0.42529
2628.63332	0.42358
2626.70475	0.42206
2624.77619	0.42060
2622.84762	0.41923
2620.91906	0.41809
2618.99049	0.41737
2617.06193	0.41685
2615.13337	0.41612
2613.20480	0.41542
2611.27624	0.41482
2609.34767	0.41390
2607.41911	0.41294
2605.49054	0.41268
2603.56198	0.41284
2601.63342	0.41240
2599.70485	0.41145
2597.77629	0.41078
2595.84772	0.41030
2593.91916	0.40937
2591.99059	0.40787
2590.06203	0.40623
2588.13346	0.40470
2586.20490	0.40294
2584.27634	0.40086
2582.34777	0.39901
2580.41921	0.39741
2578.49064	0.39555
2576.56208	0.39345
2574.63351	0.39145
2572.70495	0.38968
2570.77638	0.38824
2568.84782	0.38719
2566.91926	0.38640
2564.99069	0.38563
2563.06213	0.38466
2561.13356	0.38343
2559.20500	0.38227
2557.27643	0.38147
2555.34787	0.38064
2553.41930	0.37944
2551.49074	0.37819
2549.56218	0.37720
2547.63361	0.37636
2545.70505	0.37560
2543.77648	0.37480
2541.84792	0.37376
2539.91935	0.37241
2537.99079	0.37073
2536.06222	0.36911
2534.13366	0.36785
2532.20510	0.36661
2530.27653	0.36514
2528.34797	0.36379
2526.41940	0.36276
2524.49084	0.36170
2522.56227	0.36063
2520.63371	0.35996
2518.70514	0.35946
2516.77658	0.35872
2514.84802	0.35793
2512.91945	0.35741
2510.99089	0.35709
2509.06232	0.35686
2507.13376	0.35676
2505.20519	0.35648
2503.27663	0.35589
2501.34806	0.35550
2499.41950	0.35535
2497.49094	0.35486
2495.56237	0.35392
2493.63381	0.35299
2491.70524	0.35243
2489.77668	0.35203
2487.84811	0.35157
2485.91955	0.35107
2483.99098	0.35060
2482.06242	0.35016
2480.13386	0.34961
2478.20529	0.34878
2476.27673	0.34781
2474.34816	0.34692
2472.41960	0.34616
2470.49103	0.34555
2468.56247	0.34505
2466.63391	0.34458
2464.70534	0.34400
2462.77678	0.34308
2460.84821	0.34191
2458.91965	0.34074
2456.99108	0.33970
2455.06252	0.33879
2453.13395	0.33799
2451.20539	0.33717
2449.27683	0.33610
2447.34826	0.33473
2445.41970	0.33338
2443.49113	0.33230
2441.56257	0.33121
2439.63400	0.32980
2437.70544	0.32830
2435.77687	0.32711
2433.84831	0.32606
2431.91975	0.32507
2429.99118	0.32438
2428.06262	0.32378
2426.13405	0.32290
2424.20549	0.32199
2422.27692	0.32126
2420.34836	0.32059
2418.41979	0.32019
2416.49123	0.32023
2414.56267	0.32019
2412.63410	0.31965
2410.70554	0.31909
2408.77697	0.31877
2406.84841	0.31840
2404.91984	0.31812
2402.99128	0.31793
2401.06271	0.31756
2399.13415	0.31693
2397.20559	0.31598
2395.27702	0.31503
2393.34846	0.31453
2391.41989	0.31438
2389.49133	0.31423
2387.56276	0.31388
2385.63420	0.31313
2383.70563	0.31206
2381.77707	0.31109
2379.84851	0.31047
2377.91994	0.30991
2375.99138	0.30944
2374.06281	0.30945
2372.13425	0.30939
2370.20568	0.30859
2368.27712	0.30749
2366.34855	0.30605
2364.41999	0.30482
2362.49143	0.30605
2360.56286	0.31017
2358.63430	0.31479
2356.70573	0.31644
2354.77717	0.31480
2352.84860	0.31312
2350.92004	0.31169
2348.99147	0.30935
2347.06291	0.30651
2345.13435	0.30492
2343.20578	0.30632
2341.27722	0.30849
2339.34865	0.30839
2337.42009	0.30703
2335.49152	0.30626
2333.56296	0.30566
2331.63440	0.30481
2329.70583	0.30418
2327.77727	0.30351
2325.84870	0.30250
2323.92014	0.30208
2321.99157	0.30277
2320.06301	0.30357
2318.13444	0.30337
2316.20588	0.30244
2314.27732	0.30189
2312.34875	0.30210
2310.42019	0.30241
2308.49162	0.30213
2306.56306	0.30144
2304.63449	0.30099
2302.70593	0.30080
2300.77736	0.30035
2298.84880	0.29959
2296.92024	0.29905
2294.99167	0.29886
2293.06311	0.29876
2291.13454	0.29895
2289.20598	0.29958
2287.27741	0.30014
2285.34885	0.30031
2283.42028	0.30009
2281.49172	0.29968
2279.56316	0.29939
2277.63459	0.29921
2275.70603	0.29900
2273.77746	0.29893
2271.84890	0.29891
2269.92033	0.29866
2267.99177	0.29831
2266.06320	0.29802
2264.13464	0.29760
2262.20608	0.29709
2260.27751	0.29661
2258.34895	0.29591
2256.42038	0.29510
2254.49182	0.29473
2252.56325	0.29468
2250.63469	0.29448
2248.70612	0.29429
2246.77756	0.29432
2244.84900	0.29432
2242.92043	0.29428
2240.99187	0.29443
2239.06330	0.29479
2237.13474	0.29515
2235.20617	0.29533
2233.27761	0.29527
2231.34904	0.29516
2229.42048	0.29513
2227.49192	0.29507
2225.56335	0.29492
2223.63479	0.29476
2221.70622	0.29439
2219.77766	0.29361
2217.84909	0.29262
2215.92053	0.29172
2213.99196	0.29076
2212.06340	0.28978
2210.13484	0.28909
2208.20627	0.28859
2206.27771	0.28795
2204.34914	0.28714
2202.42058	0.28642
2200.49201	0.28593
2198.56345	0.28563
2196.63488	0.28549
2194.70632	0.28543
2192.77776	0.28558
2190.84919	0.28596
2188.92063	0.28639
2186.99206	0.28696
2185.06350	0.28773
2183.13493	0.28847
2181.20637	0.28914
2179.27781	0.28972
2177.34924	0.28997
2175.42068	0.28992
2173.49211	0.28963
2171.56355	0.28897
2169.63498	0.28805
2167.70642	0.28732
2165.77785	0.28666
2163.84929	0.28571
2161.92073	0.28458
2159.99216	0.28350
2158.06360	0.28254
2156.13503	0.28171
2154.20647	0.28085
2152.27790	0.27984
2150.34934	0.27889
2148.42077	0.27836
2146.49221	0.27815
2144.56365	0.27788
2142.63508	0.27759
2140.70652	0.27757
2138.77795	0.27802
2136.84939	0.27872
2134.92082	0.27925
2132.99226	0.27953
2131.06369	0.27971
2129.13513	0.27997
2127.20657	0.28037
2125.27800	0.28070
2123.34944	0.28055
2121.42087	0.27997
2119.49231	0.27924
2117.56374	0.27841
2115.63518	0.27759
2113.70661	0.27687
2111.77805	0.27598
2109.84949	0.27486
2107.92092	0.27373
2105.99236	0.27257
2104.06379	0.27141
2102.13523	0.27044
2100.20666	0.26957
2098.27810	0.26867
2096.34953	0.26805
2094.42097	0.26788
2092.49241	0.26776
2090.56384	0.26734
2088.63528	0.26673
2086.70671	0.26620
2084.77815	0.26598
2082.84958	0.26597
2080.92102	0.26589
2078.99245	0.26563
2077.06389	0.26531
2075.13533	0.26499
2073.20676	0.26452
2071.27820	0.26380
2069.34963	0.26307
2067.42107	0.26257
2065.49250	0.26223
2063.56394	0.26179
2061.63537	0.26103
2059.70681	0.26000
2057.77825	0.25900
2055.84968	0.25810
2053.92112	0.25725
2051.99255	0.25646
2050.06399	0.25569
2048.13542	0.25480
2046.20686	0.25365
2044.27830	0.25236
2042.34973	0.25130
2040.42117	0.25043
2038.49260	0.24943
2036.56404	0.24833
2034.63547	0.24713
2032.70691	0.24580
2030.77834	0.24458
2028.84978	0.24364
2026.92122	0.24280
2024.99265	0.24186
2023.06409	0.24083
2021.13552	0.23981
2019.20696	0.23897
2017.27839	0.23851
2015.34983	0.23818
2013.42126	0.23771
2011.49270	0.23730
2009.56414	0.23716
2007.63557	0.23718
2005.70701	0.23709
2003.77844	0.23674
2001.84988	0.23618
1999.92131	0.23573
1997.99275	0.23540
1996.06418	0.23492
1994.13562	0.23450
1992.20706	0.23448
1990.27849	0.23446
1988.34993	0.23404
1986.42136	0.23336
1984.49280	0.23266
1982.56423	0.23215
1980.63567	0.23162
1978.70710	0.23094
1976.77854	0.23040
1974.84998	0.23006
1972.92141	0.22962
1970.99285	0.22905
1969.06428	0.22874
1967.13572	0.22883
1965.20715	0.22861
1963.27859	0.22790
1961.35002	0.22728
1959.42146	0.22684
1957.49290	0.22643
1955.56433	0.22600
1953.63577	0.22545
1951.70720	0.22472
1949.77864	0.22390
1947.85007	0.22308
1945.92151	0.22215
1943.99294	0.22140
1942.06438	0.22114
1940.13582	0.22050
1938.20725	0.21923
1936.27869	0.21804
1934.35012	0.21704
1932.42156	0.21600
1930.49299	0.21493
1928.56443	0.21397
1926.63586	0.21297
1924.70730	0.21210
1922.77874	0.21155
1920.85017	0.21065
1918.92161	0.20984
1916.99304	0.20965
1915.06448	0.20904
1913.13591	0.20802
1911.20735	0.20750
1909.27878	0.20755
1907.35022	0.20750
1905.42166	0.20721
1903.49309	0.20706
1901.56453	0.20701
1899.63596	0.20688
1897.70740	0.20691
1895.77883	0.20757
1893.85027	0.20826
1891.92171	0.20830
1889.99314	0.20874
1888.06458	0.20961
1886.13601	0.20982
1884.20745	0.20981
1882.27888	0.21002
1880.35032	0.21028
1878.42175	0.21045
1876.49319	0.21055
1874.56463	0.21042
1872.63606	0.20984
1870.70750	0.20974
1868.77893	0.21158
1866.85037	0.21325
1864.92180	0.21289
1862.99324	0.21221
1861.06467	0.21213
1859.13611	0.21238
1857.20755	0.21261
1855.27898	0.21274
1853.35042	0.21277
1851.42185	0.21265
1849.49329	0.21243
1847.56472	0.21204
1845.63616	0.21241
1843.70759	0.21439
1841.77903	0.21524
1839.85047	0.21440
1837.92190	0.21379
1835.99334	0.21379
1834.06477	0.21326
1832.13621	0.21246
1830.20764	0.21306
1828.27908	0.21410
1826.35051	0.21411
1824.42195	0.21419
1822.49339	0.21403
1820.56482	0.21347
1818.63626	0.21352
1816.70769	0.21393
1814.77913	0.21386
1812.85056	0.21374
1810.92200	0.21452
1808.99343	0.21548
1807.06487	0.21547
1805.13631	0.21482
1803.20774	0.21433
1801.27918	0.21505
1799.35061	0.21641
1797.42205	0.21664
1795.49348	0.21603
1793.56492	0.21650
1791.63635	0.21909
1789.70779	0.22033
1787.77923	0.21997
1785.85066	0.22033
1783.92210	0.22165
1781.99353	0.22338
1780.06497	0.22563
1778.13640	0.22726
1776.20784	0.22767
1774.27927	0.22869
1772.35071	0.23276
1770.42215	0.23738
1768.49358	0.23993
1766.56502	0.24151
1764.63645	0.24245
1762.70789	0.24459
1760.77932	0.24832
1758.85076	0.25109
1756.92220	0.25397
1754.99363	0.25668
1753.06507	0.25858
1751.13650	0.26292
1749.20794	0.27086
1747.27937	0.27758
1745.35081	0.28208
1743.42224	0.28618
1741.49368	0.29094
1739.56512	0.29645
1737.63655	0.29991
1735.70799	0.30239
1733.77942	0.31012
1731.85086	0.31782
1729.92229	0.32152
1727.99373	0.32488
1726.06516	0.32838
1724.13660	0.33330
1722.20804	0.33836
1720.27947	0.34232
1718.35091	0.34990
1716.42234	0.36524
1714.49378	0.37674
1712.56521	0.38382
1710.63665	0.39200
1708.70808	0.40309
1706.77952	0.42201
1704.85096	0.44904
1702.92239	0.47408
1700.99383	0.51133
1699.06526	0.57417
1697.13670	0.63625
1695.20813	0.69938
1693.27957	0.74696
1691.35100	0.78476
1689.42244	0.83166
1687.49388	0.87652
1685.56531	0.92250
1683.63675	0.99673
1681.70818	1.05181
1679.77962	1.08180
1677.85105	1.10941
1675.92249	1.14254
1673.99392	1.17855
1672.06536	1.20641
1670.13680	1.23504
1668.20823	1.26690
1666.27967	1.28590
1664.35110	1.30029
1662.42254	1.31509
1660.49397	1.32451
1658.56541	1.32985
1656.63684	1.33279
1654.70828	1.33588
1652.77972	1.33423
1650.85115	1.32542
1648.92259	1.31763
1646.99402	1.31377
1645.06546	1.31329
1643.13689	1.30753
1641.20833	1.30019
1639.27976	1.29360
1637.35120	1.28876
1635.42264	1.28479
1633.49407	1.27808
1631.56551	1.27045
1629.63694	1.26123
1627.70838	1.24985
1625.77981	1.23579
1623.85125	1.21774
1621.92269	1.19706
1619.99412	1.17807
1618.06556	1.15391
1616.13699	1.11981
1614.20843	1.09353
1612.27986	1.07182
1610.35130	1.04610
1608.42273	1.01909
1606.49417	0.99717
1604.56561	0.98040
1602.63704	0.96582
1600.70848	0.95370
1598.77991	0.94500
1596.85135	0.93955
1594.92278	0.93648
1592.99422	0.93503
1591.06565	0.93526
1589.13709	0.93818
1587.20853	0.94502
1585.27996	0.95533
1583.35140	0.96844
1581.42283	0.98242
1579.49427	0.99485
1577.56570	1.01055
1575.63714	1.03464
1573.70857	1.05047
1571.78001	1.05905
1569.85145	1.07303
1567.92288	1.08993
1565.99432	1.10264
1564.06575	1.11439
1562.13719	1.12341
1560.20862	1.13492
1558.28006	1.16423
1556.35149	1.17781
1554.42293	1.17904
1552.49437	1.18022
1550.56580	1.18229
1548.63724	1.18346
1546.70867	1.18237
1544.78011	1.17816
1542.85154	1.17237
1540.92298	1.16593
1538.99441	1.15384
1537.06585	1.14523
1535.13729	1.13744
1533.20872	1.12785
1531.28016	1.11904
1529.35159	1.11086
1527.42303	1.10191
1525.49446	1.09451
1523.56590	1.08992
1521.63733	1.08607
1519.70877	1.08322
1517.78021	1.07555
1515.85164	1.06041
1513.92308	1.04313
1511.99451	1.02471
1510.06595	1.00558
1508.13738	0.97965
1506.20882	0.93936
1504.28025	0.91529
1502.35169	0.89809
1500.42313	0.87850
1498.49456	0.85445
1496.56600	0.82723
1494.63743	0.80569
1492.70887	0.79011
1490.78030	0.77372
1488.85174	0.75459
1486.92317	0.73964
1484.99461	0.73019
1483.06605	0.72516
1481.13748	0.72376
1479.20892	0.72508
1477.28035	0.72997
1475.35179	0.74082
1473.42322	0.76114
1471.49466	0.78335
1469.56610	0.79482
1467.63753	0.80219
1465.70897	0.81225
1463.78040	0.82286
1461.85184	0.82783
1459.92327	0.83036
1457.99471	0.83787
1456.06614	0.84790
1454.13758	0.84852
1452.20902	0.84553
1450.28045	0.84248
1448.35189	0.83939
1446.42332	0.83496
1444.49476	0.82957
1442.56619	0.82393
1440.63763	0.81827
1438.70906	0.81269
1436.78050	0.80672
1434.85194	0.79995
1432.92337	0.79333
1430.99481	0.78774
1429.06624	0.78382
1427.13768	0.78192
1425.20911	0.78286
1423.28055	0.78655
1421.35198	0.79088
1419.42342	0.79795
1417.49486	0.80722
1415.56629	0.81139
1413.63773	0.81240
1411.70916	0.81357
1409.78060	0.81524
1407.85203	0.81660
1405.92347	0.81850
1403.99490	0.82086
1402.06634	0.82146
1400.13778	0.82081
1398.20921	0.82047
1396.28065	0.82042
1394.35208	0.81977
1392.42352	0.81866
1390.49495	0.81864
1388.56639	0.82250
1386.63782	0.83108
1384.70926	0.84009
1382.78070	0.84797
1380.85213	0.85452
1378.92357	0.85766
1376.99500	0.85609
1375.06644	0.84965
1373.13787	0.83955
1371.20931	0.82790
1369.28074	0.81392
1367.35218	0.79837
1365.42362	0.78453
1363.49505	0.77231
1361.56649	0.76184
1359.63792	0.75465
1357.70936	0.74995
1355.78079	0.74694
1353.85223	0.74527
1351.92366	0.74436
1349.99510	0.74365
1348.06654	0.74289
1346.13797	0.74243
1344.20941	0.74253
1342.28084	0.74316
1340.35228	0.74537
1338.42371	0.74969
1336.49515	0.75451
1334.56659	0.76019
1332.63802	0.76790
1330.70946	0.77691
1328.78089	0.78543
1326.85233	0.79235
1324.92376	0.79798
1322.99520	0.80344
1321.06663	0.80945
1319.13807	0.81590
1317.20951	0.82228
1315.28094	0.82804
1313.35238	0.83283
1311.42381	0.83632
1309.49525	0.83873
1307.56668	0.84032
1305.63812	0.84110
1303.70955	0.84134
1301.78099	0.84049
1299.85243	0.83771
1297.92386	0.83327
1295.99530	0.82825
1294.06673	0.82356
1292.13817	0.81955
1290.20960	0.81641
1288.28104	0.81417
1286.35247	0.81231
1284.42391	0.81005
1282.49535	0.80757
1280.56678	0.80580
1278.63822	0.80508
1276.70965	0.80525
1274.78109	0.80629
1272.85252	0.80823
1270.92396	0.81118
1268.99539	0.81543
1267.06683	0.82072
1265.13827	0.82554
1263.20970	0.82841
1261.28114	0.82936
1259.35257	0.82955
1257.42401	0.82994
1255.49544	0.83084
1253.56688	0.83225
1251.63831	0.83371
1249.70975	0.83500
1247.78119	0.83644
1245.85262	0.83788
1243.92406	0.83887
1241.99549	0.83967
1240.06693	0.84043
1238.13836	0.84021
1236.20980	0.83869
1234.28123	0.83633
1232.35267	0.83297
1230.42411	0.82855
1228.49554	0.82341
1226.56698	0.81769
1224.63841	0.81130
1222.70985	0.80448
1220.78128	0.79741
1218.85272	0.79003
1216.92415	0.78324
1214.99559	0.77827
1213.06703	0.77554
1211.13846	0.77488
1209.20990	0.77580
1207.28133	0.77702
1205.35277	0.77581
1203.42420	0.77057
1201.49564	0.76287
1199.56708	0.75486
1197.63851	0.74732
1195.70995	0.74018
1193.78138	0.73364
1191.85282	0.72842
1189.92425	0.72455
1187.99569	0.72164
1186.06712	0.71977
1184.13856	0.71908
1182.21000	0.71961
1180.28143	0.72142
1178.35287	0.72492
1176.42430	0.73051
1174.49574	0.73771
1172.56717	0.74521
1170.63861	0.75317
1168.71004	0.76351
1166.78148	0.77667
1164.85292	0.79077
1162.92435	0.80369
1160.99579	0.81363
1159.06722	0.81868
1157.13866	0.81741
1155.21009	0.80981
1153.28153	0.79740
1151.35296	0.78272
1149.42440	0.76752
1147.49584	0.75229
1145.56727	0.73803
1143.63871	0.72686
1141.71014	0.72021
1139.78158	0.71872
1137.85301	0.72254
1135.92445	0.73022
1133.99588	0.73976
1132.06732	0.75139
1130.13876	0.76700
1128.21019	0.78615
1126.28163	0.80574
1124.35306	0.82358
1122.42450	0.83903
1120.49593	0.85200
1118.56737	0.86278
1116.63880	0.87061
1114.71024	0.87440
1112.78168	0.87454
1110.85311	0.87160
1108.92455	0.86660
1106.99598	0.86188
1105.06742	0.85862
1103.13885	0.85616
1101.21029	0.85469
1099.28172	0.85590
1097.35316	0.86118
1095.42460	0.87082
1093.49603	0.88402
1091.56747	0.89991
1089.63890	0.91898
1087.71034	0.94183
1085.78177	0.96742
1083.85321	0.99339
1081.92464	1.01683
1079.99608	1.03485
1078.06752	1.04552
1076.13895	1.04911
1074.21039	1.04669
1072.28182	1.03873
1070.35326	1.02726
1068.42469	1.01488
1066.49613	1.00170
1064.56756	0.98816
1062.63900	0.97531
1060.71044	0.96192
1058.78187	0.94807
1056.85331	0.93511
1054.92474	0.92295
1052.99618	0.91298
1051.06761	0.90681
1049.13905	0.90253
1047.21049	0.89813
1045.28192	0.89536
1043.35336	0.89744
1041.42479	0.90447
1039.49623	0.91326
1037.56766	0.92071
1035.63910	0.92536
1033.71053	0.92710
1031.78197	0.92691
1029.85341	0.92505
1027.92484	0.91906
1025.99628	0.90779
1024.06771	0.89369
1022.13915	0.87867
1020.21058	0.86378
1018.28202	0.84969
1016.35345	0.83560
1014.42489	0.81995
1012.49633	0.80084
1010.56776	0.77733
1008.63920	0.75003
1006.71063	0.72104
1004.78207	0.69330
1002.85350	0.66849
1000.92494	0.64737
998.99637	0.63097
997.06781	0.61929
995.13925	0.61080
993.21068	0.60385
991.28212	0.59717
989.35355	0.58983
987.42499	0.58192
985.49642	0.57465
983.56786	0.56929
981.63929	0.56618
979.71073	0.56491
977.78217	0.56476
975.85360	0.56432
973.92504	0.56167
971.99647	0.55581
970.06791	0.54713
968.13934	0.53674
966.21078	0.52617
964.28221	0.51701
962.35365	0.51069
960.42509	0.50893
958.49652	0.51216
956.56796	0.51729
954.63939	0.51900
952.71083	0.51483
950.78226	0.50637
948.85370	0.49631
946.92513	0.48743
944.99657	0.48156
943.06801	0.47827
941.13944	0.47650
939.21088	0.47619
937.28231	0.47734
935.35375	0.47917
933.42518	0.48096
931.49662	0.48278
929.56805	0.48491
927.63949	0.48704
925.71093	0.48866
923.78236	0.48920
921.85380	0.48777
919.92523	0.48414
917.99667	0.47851
916.06810	0.47116
914.13954	0.46324
912.21098	0.45548
910.28241	0.44799
908.35385	0.44162
906.42528	0.43711
904.49672	0.43413
902.56815	0.43189
900.63959	0.42995
898.71102	0.42801
896.78246	0.42577
894.85390	0.42351
892.92533	0.42168
890.99677	0.42011
889.06820	0.41897
887.13964	0.41895
885.21107	0.42029
883.28251	0.42302
881.35394	0.42704
879.42538	0.43161
877.49682	0.43614
875.56825	0.44066
873.63969	0.44498
871.71112	0.44891
869.78256	0.45243
867.85399	0.45523
865.92543	0.45707
863.99686	0.45844
862.06830	0.45997
860.13974	0.46174
858.21117	0.46389
856.28261	0.46663
854.35404	0.46989
852.42548	0.47351
850.49691	0.47718
848.56835	0.48073
846.63978	0.48458
844.71122	0.48928
842.78266	0.49516
840.85409	0.50219
838.92553	0.50997
836.99696	0.51794
835.06840	0.52618
833.13983	0.53500
831.21127	0.54348
829.28270	0.55087
827.35414	0.55785
825.42558	0.56460
823.49701	0.57040
821.56845	0.57498
819.63988	0.57847
817.71132	0.58103
815.78275	0.58302
813.85419	0.58454
811.92562	0.58466
809.99706	0.58243
808.06850	0.57858
806.13993	0.57459
804.21137	0.57053
802.28280	0.56592
800.35424	0.56098
798.42567	0.55613
796.49711	0.55183
794.56854	0.54841
792.63998	0.54618
790.71142	0.54549
788.78285	0.54601
786.85429	0.54770
784.92572	0.55119
782.99716	0.55648
781.06859	0.56279
779.14003	0.56892
777.21147	0.57455
775.28290	0.58096
773.35434	0.58888
771.42577	0.59728
769.49721	0.60489
767.56864	0.61130
765.64008	0.61659
763.71151	0.62109
761.78295	0.62560
759.85439	0.63052
757.92582	0.63559
755.99726	0.64051
754.06869	0.64537
752.14013	0.65023
750.21156	0.65485
748.28300	0.65914
746.35443	0.66307
744.42587	0.66648
742.49731	0.67019
740.56874	0.67490
738.64018	0.67943
736.71161	0.68376
734.78305	0.69007
732.85448	0.69894
730.92592	0.70844
728.99735	0.71739
727.06879	0.72674
725.14023	0.73646
723.21166	0.74517
721.28310	0.75354
719.35453	0.76206
717.42597	0.76878
715.49740	0.77404
713.56884	0.77962
711.64027	0.78457
709.71171	0.78759
707.78315	0.78939
705.85458	0.79021
703.92602	0.78945
701.99745	0.78712
700.06889	0.78295
698.14032	0.77696
696.21176	0.77020
694.28319	0.76344
692.35463	0.75717
690.42607	0.75159
688.49750	0.74677
686.56894	0.74257
684.64037	0.73846
682.71181	0.73474
680.78324	0.73192
678.85468	0.73042
676.92611	0.73175
674.99755	0.73489
673.06899	0.73671
671.14042	0.73815
669.21186	0.74406
667.28329	0.75423
665.35473	0.76026
663.42616	0.76482
661.49760	0.76972
659.56903	0.77417
657.64047	0.77799
655.71191	0.78175
653.78334	0.78698
651.85478	0.79258
649.92621	0.79567
647.99765	0.79806
646.06908	0.80176
644.14052	0.80407
642.21195	0.80513
640.28339	0.80751
638.35483	0.81006
636.42626	0.81206
634.49770	0.81546
632.56913	0.81992
630.64057	0.82250
628.71200	0.82361
626.78344	0.82665
624.85488	0.83180
622.92631	0.83546
620.99775	0.83662
619.06918	0.83964
617.14062	0.84645
615.21205	0.85213
613.28349	0.85493
611.35492	0.85771
609.42636	0.86088
607.49780	0.86385
605.56923	0.86531
603.64067	0.86293
601.71210	0.85876
599.78354	0.85601
