3997.91406	0.39580
3995.98550	0.39524
3994.05693	0.39375
3992.12837	0.39307
3990.19980	0.39332
3988.27124	0.39302
3986.34268	0.39228
3984.41411	0.39218
3982.48555	0.39259
3980.55698	0.39293
3978.62842	0.39341
3976.69985	0.39386
3974.77129	0.39313
3972.84272	0.39145
3970.91416	0.39076
3968.98560	0.39145
3967.05703	0.39193
3965.12847	0.39152
3963.19990	0.39105
3961.27134	0.39037
3959.34277	0.38833
3957.41421	0.38600
3955.48564	0.38492
3953.55708	0.38425
3951.62852	0.38374
3949.69995	0.38467
3947.77139	0.38552
3945.84282	0.38416
3943.91426	0.38353
3941.98569	0.38518
3940.05713	0.38555
3938.12856	0.38494
3936.20000	0.38542
3934.27144	0.38581
3932.34287	0.38577
3930.41431	0.38665
3928.48574	0.38688
3926.55718	0.38538
3924.62861	0.38392
3922.70005	0.38370
3920.77148	0.38468
3918.84292	0.38672
3916.91436	0.38770
3914.98579	0.38560
3913.05723	0.38274
3911.12866	0.38189
3909.20010	0.38169
3907.27153	0.38012
3905.34297	0.37969
3903.41440	0.38273
3901.48584	0.38611
3899.55728	0.38834
3897.62871	0.38808
3895.70015	0.38514
3893.77158	0.38280
3891.84302	0.38397
3889.91445	0.38423
3887.98589	0.38138
3886.05733	0.38073
3884.12876	0.38216
3882.20020	0.38223
3880.27163	0.38345
3878.34307	0.38271
3876.41450	0.37981
3874.48594	0.37854
3872.55737	0.37851
3870.62881	0.38072
3868.70025	0.38247
3866.77168	0.37923
3864.84312	0.37693
3862.91455	0.37817
3860.98599	0.37774
3859.05742	0.37505
3857.12886	0.37142
3855.20029	0.37137
3853.27173	0.38361
3851.34317	0.38903
3849.41460	0.38361
3847.48604	0.37796
3845.55747	0.37493
3843.62891	0.37374
3841.70034	0.37151
3839.77178	0.37011
3837.84321	0.37372
3835.91465	0.37639
3833.98609	0.37552
3832.05752	0.37454
3830.12896	0.37384
3828.20039	0.37309
3826.27183	0.37255
3824.34326	0.37082
3822.41470	0.37107
3820.48613	0.37597
3818.55757	0.37652
3816.62901	0.37621
3814.70044	0.37714
3812.77188	0.37414
3810.84331	0.36924
3808.91475	0.36728
3806.98618	0.37066
3805.05762	0.37226
3803.12905	0.37169
3801.20049	0.37445
3799.27193	0.37408
3797.34336	0.37166
3795.41480	0.37108
3793.48623	0.36988
3791.55767	0.36869
3789.62910	0.36858
3787.70054	0.36809
3785.77197	0.36775
3783.84341	0.36787
3781.91485	0.36787
3779.98628	0.36986
3778.05772	0.37162
3776.12915	0.36943
3774.20059	0.36570
3772.27202	0.36349
3770.34346	0.36499
3768.41489	0.36804
3766.48633	0.36944
3764.55777	0.36914
3762.62920	0.36701
3760.70064	0.36568
3758.77207	0.36696
3756.84351	0.36675
3754.91494	0.36301
3752.98638	0.35913
3751.05781	0.36311
3749.12925	0.36968
3747.20069	0.36921
3745.27212	0.36952
3743.34356	0.37138
3741.41499	0.36837
3739.48643	0.36366
3737.55786	0.36258
3735.62930	0.36729
3733.70074	0.37042
3731.77217	0.36858
3729.84361	0.36578
3727.91504	0.36441
3725.98648	0.36575
3724.05791	0.36762
3722.12935	0.36748
3720.20078	0.36634
3718.27222	0.36476
3716.34366	0.36205
3714.41509	0.35883
3712.48653	0.35954
3710.55796	0.36654
3708.62940	0.36946
3706.70083	0.36726
3704.77227	0.36416
3702.84370	0.36360
3700.91514	0.36641
3698.98658	0.36827
3697.05801	0.36784
3695.12945	0.36619
3693.20088	0.36465
3691.27232	0.36653
3689.34375	0.37394
3687.41519	0.37704
3685.48662	0.37510
3683.55806	0.37402
3681.62950	0.37448
3679.70093	0.37447
3677.77237	0.37507
3675.84380	0.38341
3673.91524	0.39037
3671.98667	0.38910
3670.05811	0.39151
3668.12954	0.39533
3666.20098	0.39544
3664.27242	0.39684
3662.34385	0.40035
3660.41529	0.40327
3658.48672	0.40618
3656.55816	0.41280
3654.62959	0.41773
3652.70103	0.41678
3650.77246	0.41903
3648.84390	0.43481
3646.91534	0.44456
3644.98677	0.44453
3643.05821	0.44531
3641.12964	0.44922
3639.20108	0.45367
3637.27251	0.45718
3635.34395	0.46082
3633.41538	0.46461
3631.48682	0.46859
3629.55826	0.47963
3627.62969	0.49373
3625.70113	0.49692
3623.77256	0.49718
3621.84400	0.49972
3619.91543	0.50726
3617.98687	0.51678
3616.05830	0.52121
3614.12974	0.52413
3612.20118	0.52886
3610.27261	0.53526
3608.34405	0.54402
3606.41548	0.55052
3604.48692	0.55221
3602.55835	0.55438
3600.62979	0.56072
3598.70123	0.56871
3596.77266	0.57625
3594.84410	0.58524
3592.91553	0.59316
3590.98697	0.59828
3589.05840	0.60691
3587.12984	0.62041
3585.20127	0.62768
3583.27271	0.63088
3581.34415	0.63645
3579.41558	0.64387
3577.48702	0.64964
3575.55845	0.65392
3573.62989	0.65892
3571.70132	0.66377
3569.77276	0.66826
3567.84419	0.67912
3565.91563	0.69609
3563.98707	0.70411
3562.05850	0.70650
3560.12994	0.71081
3558.20137	0.71788
3556.27281	0.72474
3554.34424	0.73140
3552.41568	0.73964
3550.48711	0.74635
3548.55855	0.75103
3546.62999	0.75790
3544.70142	0.76758
3542.77286	0.77694
3540.84429	0.78480
3538.91573	0.79218
3536.98716	0.80060
3535.05860	0.80871
3533.13003	0.81461
3531.20147	0.81980
3529.27291	0.82573
3527.34434	0.83317
3525.41578	0.84258
3523.48721	0.85372
3521.55865	0.86413
3519.63008	0.87057
3517.70152	0.87591
3515.77295	0.88350
3513.84439	0.89135
3511.91583	0.89867
3509.98726	0.90824
3508.05870	0.91915
3506.13013	0.92667
3504.20157	0.93241
3502.27300	0.94138
3500.34444	0.95265
3498.41587	0.96236
3496.48731	0.96907
3494.55875	0.97470
3492.63018	0.98159
3490.70162	0.99023
3488.77305	0.99943
3486.84449	1.00598
3484.91592	1.00829
3482.98736	1.01112
3481.05879	1.01854
3479.13023	1.02581
3477.20167	1.02988
3475.27310	1.03514
3473.34454	1.04432
3471.41597	1.05200
3469.48741	1.05331
3467.55884	1.05338
3465.63028	1.05744
3463.70171	1.06482
3461.77315	1.07333
3459.84459	1.07814
3457.91602	1.07786
3455.98746	1.07910
3454.05889	1.08522
3452.13033	1.09310
3450.20176	1.10032
3448.27320	1.10565
3446.34464	1.10619
3444.41607	1.10094
3442.48751	1.09723
3440.55894	1.10280
3438.63038	1.11315
3436.70181	1.11739
3434.77325	1.11482
3432.84468	1.11488
3430.91612	1.11987
3428.98756	1.12588
3427.05899	1.13163
3425.13043	1.13395
3423.20186	1.13275
3421.27330	1.13138
3419.34473	1.12939
3417.41617	1.12894
3415.48760	1.13360
3413.55904	1.13994
3411.63048	1.14144
3409.70191	1.13937
3407.77335	1.14030
3405.84478	1.14372
3403.91622	1.14451
3401.98765	1.14290
3400.05909	1.14177
3398.13052	1.14265
3396.20196	1.14692
3394.27340	1.15400
3392.34483	1.15866
3390.41627	1.15800
3388.48770	1.15793
3386.55914	1.16202
3384.63057	1.16678
3382.70201	1.16996
3380.77344	1.17250
3378.84488	1.17446
3376.91632	1.17441
3374.98775	1.17363
3373.05919	1.17460
3371.13062	1.17708
3369.20206	1.18206
3367.27349	1.18750
3365.34493	1.18838
3363.41636	1.18818
3361.48780	1.19143
3359.55924	1.19656
3357.63067	1.20108
3355.70211	1.20286
3353.77354	1.20397
3351.84498	1.20729
3349.91641	1.21019
3347.98785	1.20974
3346.05928	1.20780
3344.13072	1.20924
3342.20216	1.21481
3340.27359	1.21932
3338.34503	1.22156
3336.41646	1.22487
3334.48790	1.22788
3332.55933	1.22967
3330.63077	1.23563
3328.70220	1.24579
3326.77364	1.25010
3324.84508	1.24466
3322.91651	1.23845
3320.98795	1.23933
3319.05938	1.24709
3317.13082	1.25549
3315.20225	1.25902
3313.27369	1.25952
3311.34513	1.26156
3309.41656	1.26601
3307.48800	1.27011
3305.55943	1.27152
3303.63087	1.27040
3301.70230	1.26845
3299.77374	1.26759
3297.84517	1.26955
3295.91661	1.27505
3293.98805	1.28076
3292.05948	1.28455
3290.13092	1.28713
3288.20235	1.28730
3286.27379	1.28720
3284.34522	1.28951
3282.41666	1.29026
3280.48809	1.28568
3278.55953	1.27811
3276.63097	1.27153
3274.70240	1.26896
3272.77384	1.26971
3270.84527	1.26855
3268.91671	1.26474
3266.98814	1.26168
3265.05958	1.26012
3263.13101	1.25705
3261.20245	1.25056
3259.27389	1.24510
3257.34532	1.24262
3255.41676	1.24000
3253.48819	1.23584
3251.55963	1.22992
3249.63106	1.22296
3247.70250	1.21527
3245.77393	1.20652
3243.84537	1.20012
3241.91681	1.19911
3239.98824	1.19969
3238.05968	1.19710
3236.13111	1.19168
3234.20255	1.18549
3232.27398	1.18117
3230.34542	1.17929
3228.41685	1.17492
3226.48829	1.16626
3224.55973	1.15917
3222.63116	1.15675
3220.70260	1.15641
3218.77403	1.15535
3216.84547	1.15216
3214.91690	1.14742
3212.98834	1.14233
3211.05977	1.13640
3209.13121	1.13105
3207.20265	1.12882
3205.27408	1.12685
3203.34552	1.12305
3201.41695	1.12055
3199.48839	1.11868
3197.55982	1.11554
3195.63126	1.11233
3193.70269	1.10919
3191.77413	1.10619
3189.84557	1.10219
3187.91700	1.09613
3185.98844	1.08984
3184.05987	1.08546
3182.13131	1.08407
3180.20274	1.08375
3178.27418	1.08096
3176.34562	1.07594
3174.41705	1.07064
3172.48849	1.06519
3170.55992	1.06015
3168.63136	1.05625
3166.70279	1.05275
3164.77423	1.04918
3162.84566	1.04543
3160.91710	1.04089
3158.98854	1.03520
3157.05997	1.02983
3155.13141	1.02642
3153.20284	1.02378
3151.27428	1.02197
3149.34571	1.02243
3147.41715	1.02251
3145.48858	1.02038
3143.56002	1.01801
3141.63146	1.01469
3139.70289	1.00976
3137.77433	1.00603
3135.84576	1.00369
3133.91720	1.00124
3131.98863	0.99982
3130.06007	1.00033
3128.13150	1.00103
3126.20294	1.00004
3124.27438	0.99869
3122.34581	0.99806
3120.41725	0.99613
3118.48868	0.99315
3116.56012	0.99248
3114.63155	0.99370
3112.70299	0.99293
3110.77442	0.99046
3108.84586	0.98941
3106.91730	0.98991
3104.98873	0.99004
3103.06017	0.98873
3101.13160	0.98671
3099.20304	0.98519
3097.27447	0.98360
3095.34591	0.98069
3093.41734	0.97809
3091.48878	0.97805
3089.56022	0.97862
3087.63165	0.97723
3085.70309	0.97504
3083.77452	0.97389
3081.84596	0.97309
3079.91739	0.97046
3077.98883	0.96611
3076.06026	0.96231
3074.13170	0.95996
3072.20314	0.95927
3070.27457	0.95933
3068.34601	0.95721
3066.41744	0.95253
3064.48888	0.94809
3062.56031	0.94475
3060.63175	0.94167
3058.70318	0.93826
3056.77462	0.93336
3054.84606	0.92693
3052.91749	0.92104
3050.98893	0.91662
3049.06036	0.91220
3047.13180	0.90618
3045.20323	0.89991
3043.27467	0.89618
3041.34610	0.89424
3039.41754	0.89192
3037.48898	0.88919
3035.56041	0.88584
3033.63185	0.88132
3031.70328	0.87702
3029.77472	0.87404
3027.84615	0.87151
3025.91759	0.86903
3023.98903	0.86700
3022.06046	0.86476
3020.13190	0.86150
3018.20333	0.85779
3016.27477	0.85463
3014.34620	0.85161
3012.41764	0.84764
3010.48907	0.84317
3008.56051	0.83998
3006.63195	0.83867
3004.70338	0.83795
3002.77482	0.83660
3000.84625	0.83501
2998.91769	0.83464
2996.98912	0.83615
2995.06056	0.83871
2993.13199	0.84099
2991.20343	0.84240
2989.27487	0.84422
2987.34630	0.84831
2985.41774	0.85492
2983.48917	0.86262
2981.56061	0.86997
2979.63204	0.87688
2977.70348	0.88335
2975.77491	0.88945
2973.84635	0.89676
2971.91779	0.90599
2969.98922	0.91470
2968.06066	0.92085
2966.13209	0.92566
2964.20353	0.93063
2962.27496	0.93447
2960.34640	0.93501
2958.41783	0.93248
2956.48927	0.92840
2954.56071	0.92336
2952.63214	0.91877
2950.70358	0.91557
2948.77501	0.91357
2946.84645	0.91487
2944.91788	0.92094
2942.98932	0.92910
2941.06075	0.93675
2939.13219	0.94425
2937.20363	0.95295
2935.27506	0.96274
2933.34650	0.97209
2931.41793	0.97998
2929.48937	0.98733
2927.56080	0.99482
2925.63224	1.00051
2923.70367	1.00359
2921.77511	1.00538
2919.84655	1.00450
2917.91798	0.99837
2915.98942	0.98590
2914.06085	0.96772
2912.13229	0.94841
2910.20372	0.93207
2908.27516	0.91801
2906.34659	0.90527
2904.41803	0.89539
2902.48947	0.88900
2900.56090	0.88399
2898.63234	0.87898
2896.70377	0.87457
2894.77521	0.87073
2892.84664	0.86676
2890.91808	0.86293
2888.98952	0.85972
2887.06095	0.85700
2885.13239	0.85535
2883.20382	0.85573
2881.27526	0.85766
2879.34669	0.85884
2877.41813	0.85873
2875.48956	0.85933
2873.56100	0.85991
2871.63244	0.85815
2869.70387	0.85404
2867.77531	0.84832
2865.84674	0.84251
2863.91818	0.83828
2861.98961	0.83590
2860.06105	0.83500
2858.13248	0.83566
2856.20392	0.83875
2854.27536	0.84372
2852.34679	0.84735
2850.41823	0.84529
2848.48966	0.83352
2846.56110	0.81267
2844.63253	0.79021
2842.70397	0.77203
2840.77540	0.75792
2838.84684	0.74701
2836.91828	0.73912
2834.98971	0.73313
2833.06115	0.72843
2831.13258	0.72476
2829.20402	0.72102
2827.27545	0.71676
2825.34689	0.71291
2823.41832	0.71007
2821.48976	0.70796
2819.56120	0.70618
2817.63263	0.70414
2815.70407	0.70156
2813.77550	0.69857
2811.84694	0.69527
2809.91837	0.69187
2807.98981	0.68851
2806.06124	0.68538
2804.13268	0.68250
2802.20412	0.67926
2800.27555	0.67517
2798.34699	0.67072
2796.41842	0.66677
2794.48986	0.66358
2792.56129	0.66082
2790.63273	0.65794
2788.70416	0.65456
2786.77560	0.65127
2784.84704	0.64887
2782.91847	0.64690
2780.98991	0.64459
2779.06134	0.64223
2777.13278	0.64018
2775.20421	0.63838
2773.27565	0.63705
2771.34708	0.63625
2769.41852	0.63521
2767.48996	0.63380
2765.56139	0.63260
2763.63283	0.63157
2761.70426	0.63055
2759.77570	0.62971
2757.84713	0.62864
2755.91857	0.62700
2753.99001	0.62491
2752.06144	0.62251
2750.13288	0.62061
2748.20431	0.61939
2746.27575	0.61792
2744.34718	0.61662
2742.41862	0.61591
2740.49005	0.61497
2738.56149	0.61360
2736.63293	0.61221
2734.70436	0.61084
2732.77580	0.60890
2730.84723	0.60631
2728.91867	0.60415
2726.99010	0.60283
2725.06154	0.60223
2723.13297	0.60220
2721.20441	0.60165
2719.27585	0.60007
2717.34728	0.59834
2715.41872	0.59666
2713.49015	0.59485
2711.56159	0.59322
2709.63302	0.59153
2707.70446	0.58960
2705.77589	0.58810
2703.84733	0.58743
2701.91877	0.58706
2699.99020	0.58637
2698.06164	0.58526
2696.13307	0.58355
2694.20451	0.58126
2692.27594	0.57930
2690.34738	0.57773
2688.41881	0.57573
2686.49025	0.57372
2684.56169	0.57238
2682.63312	0.57095
2680.70456	0.56871
2678.77599	0.56623
2676.84743	0.56425
2674.91886	0.56270
2672.99030	0.56117
2671.06173	0.55940
2669.13317	0.55761
2667.20461	0.55589
2665.27604	0.55435
2663.34748	0.55328
2661.41891	0.55222
2659.49035	0.55072
2657.56178	0.54907
2655.63322	0.54771
2653.70465	0.54693
2651.77609	0.54619
2649.84753	0.54502
2647.91896	0.54405
2645.99040	0.54335
2644.06183	0.54203
2642.13327	0.54007
2640.20470	0.53821
2638.27614	0.53669
2636.34757	0.53531
2634.41901	0.53391
2632.49045	0.53250
2630.56188	0.53116
2628.63332	0.52975
2626.70475	0.52822
2624.77619	0.52675
2622.84762	0.52526
2620.91906	0.52369
2618.99049	0.52210
2617.06193	0.52043
2615.13337	0.51888
2613.20480	0.51771
2611.27624	0.51665
2609.34767	0.51537
2607.41911	0.51393
2605.49054	0.51235
2603.56198	0.51082
2601.63342	0.50945
2599.70485	0.50785
2597.77629	0.50592
2595.84772	0.50424
2593.91916	0.50310
2591.99059	0.50206
2590.06203	0.50086
2588.13346	0.49961
2586.20490	0.49835
2584.27634	0.49684
2582.34777	0.49515
2580.41921	0.49360
2578.49064	0.49225
2576.56208	0.49101
2574.63351	0.48980
2572.70495	0.48833
2570.77638	0.48676
2568.84782	0.48546
2566.91926	0.48417
2564.99069	0.48289
2563.06213	0.48185
2561.13356	0.48068
2559.20500	0.47918
2557.27643	0.47757
2555.34787	0.47593
2553.41930	0.47442
2551.49074	0.47326
2549.56218	0.47210
2547.63361	0.47049
2545.70505	0.46876
2543.77648	0.46712
2541.84792	0.46522
2539.91935	0.46317
2537.99079	0.46157
2536.06222	0.46052
2534.13366	0.45954
2532.20510	0.45833
2530.27653	0.45663
2528.34797	0.45431
2526.41940	0.45199
2524.49084	0.45012
2522.56227	0.44858
2520.63371	0.44715
2518.70514	0.44549
2516.77658	0.44357
2514.84802	0.44197
2512.91945	0.44071
2510.99089	0.43924
2509.06232	0.43769
2507.13376	0.43629
2505.20519	0.43483
2503.27663	0.43351
2501.34806	0.43286
2499.41950	0.43257
2497.49094	0.43176
2495.56237	0.43026
2493.63381	0.42852
2491.70524	0.42696
2489.77668	0.42599
2487.84811	0.42554
2485.91955	0.42504
2483.99098	0.42410
2482.06242	0.42285
2480.13386	0.42151
2478.20529	0.42005
2476.27673	0.41837
2474.34816	0.41656
2472.41960	0.41499
2470.49103	0.41360
2468.56247	0.41195
2466.63391	0.41006
2464.70534	0.40826
2462.77678	0.40667
2460.84821	0.40521
2458.91965	0.40376
2456.99108	0.40206
2455.06252	0.39993
2453.13395	0.39764
2451.20539	0.39576
2449.27683	0.39432
2447.34826	0.39280
2445.41970	0.39106
2443.49113	0.38942
2441.56257	0.38804
2439.63400	0.38654
2437.70544	0.38468
2435.77687	0.38295
2433.84831	0.38187
2431.91975	0.38129
2429.99118	0.38078
2428.06262	0.38004
2426.13405	0.37911
2424.20549	0.37823
2422.27692	0.37752
2420.34836	0.37706
2418.41979	0.37674
2416.49123	0.37624
2414.56267	0.37563
2412.63410	0.37516
2410.70554	0.37458
2408.77697	0.37376
2406.84841	0.37293
2404.91984	0.37221
2402.99128	0.37150
2401.06271	0.37070
2399.13415	0.36974
2397.20559	0.36858
2395.27702	0.36729
2393.34846	0.36615
2391.41989	0.36527
2389.49133	0.36433
2387.56276	0.36320
2385.63420	0.36205
2383.70563	0.36070
2381.77707	0.35902
2379.84851	0.35734
2377.91994	0.35608
2375.99138	0.35543
2374.06281	0.35529
2372.13425	0.35556
2370.20568	0.35638
2368.27712	0.35710
2366.34855	0.35662
2364.41999	0.35525
2362.49143	0.35401
2360.56286	0.35454
2358.63430	0.35696
2356.70573	0.35929
2354.77717	0.36076
2352.84860	0.36093
2350.92004	0.35931
2348.99147	0.35657
2347.06291	0.35340
2345.13435	0.35083
2343.20578	0.35107
2341.27722	0.35337
2339.34865	0.35444
2337.42009	0.35466
2335.49152	0.35496
2333.56296	0.35386
2331.63440	0.35159
2329.70583	0.35019
2327.77727	0.34949
2325.84870	0.34871
2323.92014	0.34873
2321.99157	0.34988
2320.06301	0.35104
2318.13444	0.35149
2316.20588	0.35137
2314.27732	0.35121
2312.34875	0.35141
2310.42019	0.35181
2308.49162	0.35209
2306.56306	0.35231
2304.63449	0.35270
2302.70593	0.35331
2300.77736	0.35359
2298.84880	0.35324
2296.92024	0.35293
2294.99167	0.35278
2293.06311	0.35231
2291.13454	0.35159
2289.20598	0.35088
2287.27741	0.35011
2285.34885	0.34914
2283.42028	0.34793
2281.49172	0.34647
2279.56316	0.34497
2277.63459	0.34381
2275.70603	0.34309
2273.77746	0.34254
2271.84890	0.34209
2269.92033	0.34189
2267.99177	0.34174
2266.06320	0.34146
2264.13464	0.34138
2262.20608	0.34174
2260.27751	0.34218
2258.34895	0.34253
2256.42038	0.34321
2254.49182	0.34426
2252.56325	0.34521
2250.63469	0.34591
2248.70612	0.34655
2246.77756	0.34717
2244.84900	0.34767
2242.92043	0.34816
2240.99187	0.34867
2239.06330	0.34884
2237.13474	0.34845
2235.20617	0.34790
2233.27761	0.34753
2231.34904	0.34725
2229.42048	0.34697
2227.49192	0.34681
2225.56335	0.34682
2223.63479	0.34682
2221.70622	0.34659
2219.77766	0.34616
2217.84909	0.34592
2215.92053	0.34606
2213.99196	0.34642
2212.06340	0.34686
2210.13484	0.34735
2208.20627	0.34783
2206.27771	0.34830
2204.34914	0.34904
2202.42058	0.35006
2200.49201	0.35084
2198.56345	0.35124
2196.63488	0.35168
2194.70632	0.35229
2192.77776	0.35286
2190.84919	0.35343
2188.92063	0.35418
2186.99206	0.35490
2185.06350	0.35515
2183.13493	0.35507
2181.20637	0.35508
2179.27781	0.35497
2177.34924	0.35444
2175.42068	0.35386
2173.49211	0.35343
2171.56355	0.35264
2169.63498	0.35155
2167.70642	0.35083
2165.77785	0.35049
2163.84929	0.34982
2161.92073	0.34872
2159.99216	0.34794
2158.06360	0.34771
2156.13503	0.34744
2154.20647	0.34700
2152.27790	0.34678
2150.34934	0.34686
2148.42077	0.34713
2146.49221	0.34749
2144.56365	0.34769
2142.63508	0.34769
2140.70652	0.34778
2138.77795	0.34816
2136.84939	0.34860
2134.92082	0.34886
2132.99226	0.34908
2131.06369	0.34931
2129.13513	0.34939
2127.20657	0.34928
2125.27800	0.34898
2123.34944	0.34867
2121.42087	0.34856
2119.49231	0.34832
2117.56374	0.34775
2115.63518	0.34717
2113.70661	0.34682
2111.77805	0.34654
2109.84949	0.34604
2107.92092	0.34534
2105.99236	0.34468
2104.06379	0.34407
2102.13523	0.34345
2100.20666	0.34299
2098.27810	0.34286
2096.34953	0.34285
2094.42097	0.34286
2092.49241	0.34291
2090.56384	0.34300
2088.63528	0.34312
2086.70671	0.34317
2084.77815	0.34314
2082.84958	0.34317
2080.92102	0.34336
2078.99245	0.34353
2077.06389	0.34355
2075.13533	0.34372
2073.20676	0.34412
2071.27820	0.34441
2069.34963	0.34447
2067.42107	0.34463
2065.49250	0.34509
2063.56394	0.34554
2061.63537	0.34569
2059.70681	0.34570
2057.77825	0.34564
2055.84968	0.34540
2053.92112	0.34515
2051.99255	0.34506
2050.06399	0.34495
2048.13542	0.34465
2046.20686	0.34426
2044.27830	0.34405
2042.34973	0.34408
2040.42117	0.34406
2038.49260	0.34379
2036.56404	0.34331
2034.63547	0.34262
2032.70691	0.34183
2030.77834	0.34105
2028.84978	0.34021
2026.92122	0.33933
2024.99265	0.33847
2023.06409	0.33745
2021.13552	0.33608
2019.20696	0.33455
2017.27839	0.33330
2015.34983	0.33233
2013.42126	0.33126
2011.49270	0.33008
2009.56414	0.32907
2007.63557	0.32822
2005.70701	0.32735
2003.77844	0.32653
2001.84988	0.32579
1999.92131	0.32501
1997.99275	0.32414
1996.06418	0.32323
1994.13562	0.32250
1992.20706	0.32215
1990.27849	0.32173
1988.34993	0.32093
1986.42136	0.31988
1984.49280	0.31876
1982.56423	0.31785
1980.63567	0.31702
1978.70710	0.31603
1976.77854	0.31519
1974.84998	0.31466
1972.92141	0.31413
1970.99285	0.31340
1969.06428	0.31281
1967.13572	0.31260
1965.20715	0.31219
1963.27859	0.31150
1961.35002	0.31096
1959.42146	0.31047
1957.49290	0.31005
1955.56433	0.30993
1953.63577	0.30988
1951.70720	0.30972
1949.77864	0.30954
1947.85007	0.30939
1945.92151	0.30918
1943.99294	0.30924
1942.06438	0.30988
1940.13582	0.31023
1938.20725	0.31008
1936.27869	0.31013
1934.35012	0.31033
1932.42156	0.31052
1930.49299	0.31074
1928.56443	0.31075
1926.63586	0.31036
1924.70730	0.31009
1922.77874	0.31038
1920.85017	0.31035
1918.92161	0.31016
1916.99304	0.31027
1915.06448	0.30954
1913.13591	0.30801
1911.20735	0.30684
1909.27878	0.30626
1907.35022	0.30557
1905.42166	0.30450
1903.49309	0.30330
1901.56453	0.30212
1899.63596	0.30082
1897.70740	0.29959
1895.77883	0.29887
1893.85027	0.29825
1891.92171	0.29734
1889.99314	0.29716
1888.06458	0.29753
1886.13601	0.29726
1884.20745	0.29674
1882.27888	0.29660
1880.35032	0.29691
1878.42175	0.29729
1876.49319	0.29731
1874.56463	0.29694
1872.63606	0.29628
1870.70750	0.29626
1868.77893	0.29815
1866.85037	0.29987
1864.92180	0.29949
1862.99324	0.29859
1861.06467	0.29811
1859.13611	0.29788
1857.20755	0.29756
1855.27898	0.29709
1853.35042	0.29657
1851.42185	0.29598
1849.49329	0.29541
1847.56472	0.29481
1845.63616	0.29477
1843.70759	0.29554
1841.77903	0.29480
1839.85047	0.29271
1837.92190	0.29126
1835.99334	0.29074
1834.06477	0.28982
1832.13621	0.28875
1830.20764	0.28917
1828.27908	0.29000
1826.35051	0.28988
1824.42195	0.29003
1822.49339	0.29000
1820.56482	0.28948
1818.63626	0.28945
1816.70769	0.28978
1814.77913	0.28984
1812.85056	0.28995
1810.92200	0.29089
1808.99343	0.29194
1807.06487	0.29212
1805.13631	0.29178
1803.20774	0.29159
1801.27918	0.29250
1799.35061	0.29403
1797.42205	0.29440
1795.49348	0.29360
1793.56492	0.29364
1791.63635	0.29610
1789.70779	0.29743
1787.77923	0.29675
1785.85066	0.29640
1783.92210	0.29677
1781.99353	0.29738
1780.06497	0.29842
1778.13640	0.29906
1776.20784	0.29872
1774.27927	0.29885
1772.35071	0.30153
1770.42215	0.30462
1768.49358	0.30608
1766.56502	0.30694
1764.63645	0.30734
1762.70789	0.30908
1760.77932	0.31289
1758.85076	0.31650
1756.92220	0.32097
1754.99363	0.32526
1753.06507	0.32841
1751.13650	0.33445
1749.20794	0.34469
1747.27937	0.35329
1745.35081	0.35909
1743.42224	0.36403
1741.49368	0.36887
1739.56512	0.37330
1737.63655	0.37520
1735.70799	0.37591
1733.77942	0.38024
1731.85086	0.38441
1729.92229	0.38584
1727.99373	0.38735
1726.06516	0.38922
1724.13660	0.39267
1722.20804	0.39691
1720.27947	0.40077
1718.35091	0.40918
1716.42234	0.42691
1714.49378	0.44119
1712.56521	0.45106
1710.63665	0.46240
1708.70808	0.47682
1706.77952	0.49872
1704.85096	0.52759
1702.92239	0.55252
1700.99383	0.58601
1699.06526	0.64018
1697.13670	0.69164
1695.20813	0.74029
1693.27957	0.77374
1691.35100	0.79881
1689.42244	0.83009
1687.49388	0.85924
1685.56531	0.88824
1683.63675	0.93372
1681.70818	0.96470
1679.77962	0.97974
1677.85105	0.99315
1675.92249	1.00963
1673.99392	1.02652
1672.06536	1.03668
1670.13680	1.04635
1668.20823	1.05859
1666.27967	1.06458
1664.35110	1.06950
1662.42254	1.07709
1660.49397	1.08102
1658.56541	1.08041
1656.63684	1.07741
1654.70828	1.07439
1652.77972	1.07418
1650.85115	1.07164
1648.92259	1.06625
1646.99402	1.05983
1645.06546	1.05510
1643.13689	1.05087
1641.20833	1.04664
1639.27976	1.04234
1637.35120	1.03871
1635.42264	1.03626
1633.49407	1.03207
1631.56551	1.02673
1629.63694	1.02115
1627.70838	1.01554
1625.77981	1.00886
1623.85125	0.99948
1621.92269	0.98787
1619.99412	0.97697
1618.06556	0.96443
1616.13699	0.94784
1614.20843	0.93421
1612.27986	0.92298
1610.35130	0.91122
1608.42273	0.89911
1606.49417	0.88798
1604.56561	0.87880
1602.63704	0.87137
1600.70848	0.86549
1598.77991	0.86099
1596.85135	0.85839
1594.92278	0.85762
1592.99422	0.85744
1591.06565	0.85803
1589.13709	0.86075
1587.20853	0.86617
1585.27996	0.87396
1583.35140	0.88381
1581.42283	0.89445
1579.49427	0.90408
1577.56570	0.91600
1575.63714	0.93446
1573.70857	0.94724
1571.78001	0.95478
1569.85145	0.96643
1567.92288	0.97964
1565.99432	0.98886
1564.06575	0.99655
1562.13719	1.00147
1560.20862	1.00635
1558.28006	1.01954
1556.35149	1.02437
1554.42293	1.02182
1552.49437	1.01828
1550.56580	1.01524
1548.63724	1.01208
1546.70867	1.00802
1544.78011	1.00214
1542.85154	0.99496
1540.92298	0.98914
1538.99441	0.98143
1537.06585	0.97372
1535.13729	0.96624
1533.20872	0.95723
1531.28016	0.94845
1529.35159	0.94171
1527.42303	0.93623
1525.49446	0.93173
1523.56590	0.92908
1521.63733	0.92790
1519.70877	0.92487
1517.78021	0.91829
1515.85164	0.90928
1513.92308	0.89963
1511.99451	0.88948
1510.06595	0.87898
1508.13738	0.86567
1506.20882	0.84741
1504.28025	0.83540
1502.35169	0.82565
1500.42313	0.81524
1498.49456	0.80346
1496.56600	0.78944
1494.63743	0.77684
1492.70887	0.76702
1490.78030	0.75629
1488.85174	0.74289
1486.92317	0.73125
1484.99461	0.72259
1483.06605	0.71660
1481.13748	0.71350
1479.20892	0.71311
1477.28035	0.71538
1475.35179	0.72156
1473.42322	0.73633
1471.49466	0.75496
1469.56610	0.76406
1467.63753	0.76909
1465.70897	0.77741
1463.78040	0.78799
1461.85184	0.79385
1459.92327	0.79721
1457.99471	0.80719
1456.06614	0.82185
1454.13758	0.82550
1452.20902	0.82520
1450.28045	0.82459
1448.35189	0.82427
1446.42332	0.82352
1444.49476	0.82094
1442.56619	0.81700
1440.63763	0.81249
1438.70906	0.80723
1436.78050	0.79982
1434.85194	0.79058
1432.92337	0.78217
1430.99481	0.77497
1429.06624	0.76906
1427.13768	0.76468
1425.20911	0.76202
1423.28055	0.76126
1421.35198	0.76223
1419.42342	0.76631
1417.49486	0.77152
1415.56629	0.77316
1413.63773	0.77357
1411.70916	0.77529
1409.78060	0.77839
1407.85203	0.78142
1405.92347	0.78495
1403.99490	0.78935
1402.06634	0.79261
1400.13778	0.79524
1398.20921	0.79821
1396.28065	0.80138
1394.35208	0.80454
1392.42352	0.80631
1390.49495	0.80749
1388.56639	0.81105
1386.63782	0.81836
1384.70926	0.82567
1382.78070	0.83079
1380.85213	0.83371
1378.92357	0.83367
1376.99500	0.83039
1375.06644	0.82388
1373.13787	0.81450
1371.20931	0.80408
1369.28074	0.79259
1367.35218	0.78021
1365.42362	0.76877
1363.49505	0.75830
1361.56649	0.74988
1359.63792	0.74526
1357.70936	0.74325
1355.78079	0.74258
1353.85223	0.74250
1351.92366	0.74278
1349.99510	0.74390
1348.06654	0.74598
1346.13797	0.74827
1344.20941	0.75030
1342.28084	0.75238
1340.35228	0.75542
1338.42371	0.75959
1336.49515	0.76360
1334.56659	0.76764
1332.63802	0.77261
1330.70946	0.77829
1328.78089	0.78346
1326.85233	0.78705
1324.92376	0.78891
1322.99520	0.78982
1321.06663	0.79058
1319.13807	0.79128
1317.20951	0.79181
1315.28094	0.79226
1313.35238	0.79264
1311.42381	0.79275
1309.49525	0.79259
1307.56668	0.79211
1305.63812	0.79134
1303.70955	0.79069
1301.78099	0.79023
1299.85243	0.78936
1297.92386	0.78772
1295.99530	0.78618
1294.06673	0.78576
1292.13817	0.78601
1290.20960	0.78651
1288.28104	0.78786
1286.35247	0.78999
1284.42391	0.79193
1282.49535	0.79353
1280.56678	0.79532
1278.63822	0.79735
1276.70965	0.79945
1274.78109	0.80212
1272.85252	0.80608
1270.92396	0.81090
1268.99539	0.81547
1267.06683	0.81947
1265.13827	0.82276
1263.20970	0.82521
1261.28114	0.82698
1259.35257	0.82783
1257.42401	0.82764
1255.49544	0.82714
1253.56688	0.82710
1251.63831	0.82786
1249.70975	0.82905
1247.78119	0.82963
1245.85262	0.82930
1243.92406	0.82892
1241.99549	0.82909
1240.06693	0.82915
1238.13836	0.82806
1236.20980	0.82588
1234.28123	0.82369
1232.35267	0.82193
1230.42411	0.81948
1228.49554	0.81554
1226.56698	0.81087
1224.63841	0.80618
1222.70985	0.80138
1220.78128	0.79625
1218.85272	0.79099
1216.92415	0.78618
1214.99559	0.78267
1213.06703	0.78111
1211.13846	0.78113
1209.20990	0.78163
1207.28133	0.78123
1205.35277	0.77844
1203.42420	0.77284
1201.49564	0.76551
1199.56708	0.75749
1197.63851	0.74891
1195.70995	0.74021
1193.78138	0.73234
1191.85282	0.72563
1189.92425	0.72030
1187.99569	0.71671
1186.06712	0.71447
1184.13856	0.71319
1182.21000	0.71359
1180.28143	0.71662
1178.35287	0.72210
1176.42430	0.72930
1174.49574	0.73812
1172.56717	0.74857
1170.63861	0.76026
1168.71004	0.77323
1166.78148	0.78788
1164.85292	0.80358
1162.92435	0.81864
1160.99579	0.83131
1159.06722	0.83965
1157.13866	0.84244
1155.21009	0.84030
1153.28153	0.83440
1151.35296	0.82586
1149.42440	0.81610
1147.49584	0.80572
1145.56727	0.79499
1143.63871	0.78556
1141.71014	0.77954
1139.78158	0.77678
1137.85301	0.77565
1135.92445	0.77612
1133.99588	0.77992
1132.06732	0.78747
1130.13876	0.79773
1128.21019	0.80964
1126.28163	0.82220
1124.35306	0.83478
1122.42450	0.84682
1120.49593	0.85760
1118.56737	0.86663
1116.63880	0.87326
1114.71024	0.87730
1112.78168	0.87936
1110.85311	0.87967
1108.92455	0.87899
1106.99598	0.87837
1105.06742	0.87793
1103.13885	0.87749
1101.21029	0.87606
1099.28172	0.87342
1097.35316	0.87267
1095.42460	0.87584
1093.49603	0.88080
1091.56747	0.88570
1089.63890	0.89160
1087.71034	0.89981
1085.78177	0.90986
1083.85321	0.92022
1081.92464	0.93000
1079.99608	0.93808
1078.06752	0.94238
1076.13895	0.94301
1074.21039	0.94108
1072.28182	0.93543
1070.35326	0.92653
1068.42469	0.91771
1066.49613	0.91132
1064.56756	0.90793
1062.63900	0.90621
1060.71044	0.90355
1058.78187	0.89950
1056.85331	0.89637
1054.92474	0.89512
1052.99618	0.89494
1051.06761	0.89536
1049.13905	0.89581
1047.21049	0.89575
1045.28192	0.89562
1043.35336	0.89636
1041.42479	0.89840
1039.49623	0.90108
1037.56766	0.90316
1035.63910	0.90403
1033.71053	0.90378
1031.78197	0.90172
1029.85341	0.89716
1027.92484	0.89043
1025.99628	0.88164
1024.06771	0.87058
1022.13915	0.85844
1020.21058	0.84737
1018.28202	0.83801
1016.35345	0.82955
1014.42489	0.82105
1012.49633	0.81177
1010.56776	0.80164
1008.63920	0.79085
1006.71063	0.77973
1004.78207	0.76943
1002.85350	0.76101
1000.92494	0.75485
998.99637	0.75144
997.06781	0.75088
995.13925	0.75159
993.21068	0.75161
991.28212	0.74997
989.35355	0.74589
987.42499	0.73849
985.49642	0.72822
983.56786	0.71645
981.63929	0.70333
979.71073	0.68911
977.78217	0.67485
975.85360	0.66075
973.92504	0.64616
971.99647	0.63050
970.06791	0.61420
968.13934	0.59854
966.21078	0.58464
964.28221	0.57371
962.35365	0.56711
960.42509	0.56582
958.49652	0.56953
956.56796	0.57536
954.63939	0.57904
952.71083	0.57830
950.78226	0.57387
948.85370	0.56783
946.92513	0.56197
944.99657	0.55685
943.06801	0.55221
941.13944	0.54770
939.21088	0.54318
937.28231	0.53863
935.35375	0.53370
933.42518	0.52794
931.49662	0.52161
929.56805	0.51541
927.63949	0.50965
925.71093	0.50489
923.78236	0.50165
921.85380	0.49900
919.92523	0.49558
917.99667	0.49169
916.06810	0.48858
914.13954	0.48671
912.21098	0.48592
910.28241	0.48664
908.35385	0.48970
906.42528	0.49534
904.49672	0.50279
902.56815	0.51077
900.63959	0.51839
898.71102	0.52529
896.78246	0.53121
894.85390	0.53599
892.92533	0.53975
890.99677	0.54287
889.06820	0.54578
887.13964	0.54874
885.21107	0.55165
883.28251	0.55399
881.35394	0.55562
879.42538	0.55687
877.49682	0.55747
875.56825	0.55668
873.63969	0.55434
871.71112	0.55118
869.78256	0.54764
867.85399	0.54365
865.92543	0.53948
863.99686	0.53552
862.06830	0.53195
860.13974	0.52935
858.21117	0.52836
856.28261	0.52890
854.35404	0.53017
852.42548	0.53197
850.49691	0.53449
848.56835	0.53734
846.63978	0.54057
844.71122	0.54493
842.78266	0.55048
840.85409	0.55619
838.92553	0.56161
836.99696	0.56703
835.06840	0.57237
833.13983	0.57778
831.21127	0.58314
829.28270	0.58768
827.35414	0.59112
825.42558	0.59325
823.49701	0.59407
821.56845	0.59433
819.63988	0.59447
817.71132	0.59459
815.78275	0.59493
813.85419	0.59527
811.92562	0.59534
809.99706	0.59504
808.06850	0.59441
806.13993	0.59404
804.21137	0.59409
802.28280	0.59431
800.35424	0.59483
798.42567	0.59583
796.49711	0.59746
794.56854	0.59985
792.63998	0.60287
790.71142	0.60622
788.78285	0.61025
786.85429	0.61547
784.92572	0.62150
782.99716	0.62732
781.06859	0.63200
779.14003	0.63563
777.21147	0.63870
775.28290	0.64133
773.35434	0.64387
771.42577	0.64587
769.49721	0.64638
767.56864	0.64590
765.64008	0.64507
763.71151	0.64385
761.78295	0.64316
759.85439	0.64357
757.92582	0.64427
755.99726	0.64514
754.06869	0.64687
752.14013	0.64938
750.21156	0.65240
748.28300	0.65681
746.35443	0.66283
744.42587	0.66920
742.49731	0.67583
740.56874	0.68304
738.64018	0.68999
736.71161	0.69690
734.78305	0.70520
732.85448	0.71492
730.92592	0.72527
728.99735	0.73581
727.06879	0.74574
725.14023	0.75448
723.21166	0.76282
721.28310	0.77183
719.35453	0.78043
717.42597	0.78673
715.49740	0.79103
713.56884	0.79439
711.64027	0.79777
709.71171	0.80115
707.78315	0.80296
705.85458	0.80365
703.92602	0.80482
701.99745	0.80620
700.06889	0.80765
698.14032	0.80862
696.21176	0.80762
694.28319	0.80536
692.35463	0.80377
690.42607	0.80313
688.49750	0.80258
686.56894	0.80065
684.64037	0.79718
682.71181	0.79465
680.78324	0.79373
678.85468	0.79186
676.92611	0.78844
674.99755	0.78546
673.06899	0.78323
671.14042	0.78103
669.21186	0.78127
667.28329	0.78478
665.35473	0.78466
663.42616	0.78252
661.49760	0.78141
659.56903	0.78226
657.64047	0.78416
655.71191	0.78588
653.78334	0.78854
651.85478	0.79276
649.92621	0.79625
647.99765	0.79844
646.06908	0.80169
644.14052	0.80657
642.21195	0.81111
640.28339	0.81499
638.35483	0.82074
636.42626	0.82821
634.49770	0.83271
632.56913	0.83240
630.64057	0.83133
628.71200	0.83296
626.78344	0.83675
624.85488	0.83997
622.92631	0.84048
620.99775	0.83909
619.06918	0.83874
617.14062	0.84015
615.21205	0.83995
613.28349	0.83669
611.35492	0.83457
609.42636	0.83544
607.49780	0.83453
605.56923	0.82969
603.64067	0.82600
601.71210	0.82688
599.78354	0.83003
