3997.91406	0.27185
3995.98550	0.27275
3994.05693	0.27282
3992.12837	0.27188
3990.19980	0.27092
3988.27124	0.27031
3986.34268	0.27008
3984.41411	0.26981
3982.48555	0.26866
3980.55698	0.26778
3978.62842	0.26804
3976.69985	0.26803
3974.77129	0.26739
3972.84272	0.26682
3970.91416	0.26648
3968.98560	0.26689
3967.05703	0.26745
3965.12847	0.26662
3963.19990	0.26515
3961.27134	0.26413
3959.34277	0.26272
3957.41421	0.26113
3955.48564	0.26063
3953.55708	0.26112
3951.62852	0.26157
3949.69995	0.26194
3947.77139	0.26197
3945.84282	0.26052
3943.91426	0.25970
3941.98569	0.26087
3940.05713	0.26070
3938.12856	0.25857
3936.20000	0.25704
3934.27144	0.25736
3932.34287	0.25863
3930.41431	0.25878
3928.48574	0.25726
3926.55718	0.25554
3924.62861	0.25496
3922.70005	0.25469
3920.77148	0.25382
3918.84292	0.25345
3916.91436	0.25459
3914.98579	0.25557
3913.05723	0.25484
3911.12866	0.25359
3909.20010	0.25237
3907.27153	0.25063
3905.34297	0.24981
3903.41440	0.25234
3901.48584	0.25606
3899.55728	0.25778
3897.62871	0.25714
3895.70015	0.25497
3893.77158	0.25315
3891.84302	0.25308
3889.91445	0.25155
3887.98589	0.24825
3886.05733	0.24818
3884.12876	0.25067
3882.20020	0.25154
3880.27163	0.25244
3878.34307	0.25091
3876.41450	0.24728
3874.48594	0.24513
3872.55737	0.24497
3870.62881	0.24773
3868.70025	0.24993
3866.77168	0.24737
3864.84312	0.24592
3862.91455	0.24720
3860.98599	0.24551
3859.05742	0.24176
3857.12886	0.23914
3855.20029	0.24152
3853.27173	0.25140
3851.34317	0.25262
3849.41460	0.24716
3847.48604	0.24242
3845.55747	0.23987
3843.62891	0.23963
3841.70034	0.23982
3839.77178	0.24042
3837.84321	0.24275
3835.91465	0.24285
3833.98609	0.24101
3832.05752	0.23997
3830.12896	0.23878
3828.20039	0.23682
3826.27183	0.23478
3824.34326	0.23215
3822.41470	0.23198
3820.48613	0.23603
3818.55757	0.23597
3816.62901	0.23569
3814.70044	0.23701
3812.77188	0.23493
3810.84331	0.23144
3808.91475	0.22999
3806.98618	0.23180
3805.05762	0.23185
3803.12905	0.23054
3801.20049	0.23323
3799.27193	0.23448
3797.34336	0.23375
3795.41480	0.23379
3793.48623	0.23221
3791.55767	0.22965
3789.62910	0.22791
3787.70054	0.22702
3785.77197	0.22736
3783.84341	0.22800
3781.91485	0.22749
3779.98628	0.22807
3778.05772	0.22961
3776.12915	0.22871
3774.20059	0.22625
3772.27202	0.22501
3770.34346	0.22664
3768.41489	0.22805
3766.48633	0.22731
3764.55777	0.22605
3762.62920	0.22396
3760.70064	0.22309
3758.77207	0.22539
3756.84351	0.22595
3754.91494	0.22338
3752.98638	0.22270
3751.05781	0.22937
3749.12925	0.23265
3747.20069	0.22810
3745.27212	0.22683
3743.34356	0.22948
3741.41499	0.22752
3739.48643	0.22301
3737.55786	0.22090
3735.62930	0.22478
3733.70074	0.22938
3731.77217	0.22820
3729.84361	0.22468
3727.91504	0.22272
3725.98648	0.22380
3724.05791	0.22526
3722.12935	0.22500
3720.20078	0.22426
3718.27222	0.22299
3716.34366	0.22051
3714.41509	0.21766
3712.48653	0.21818
3710.55796	0.22303
3708.62940	0.22364
3706.70083	0.22052
3704.77227	0.21751
3702.84370	0.21762
3700.91514	0.22026
3698.98658	0.22067
3697.05801	0.21965
3695.12945	0.21890
3693.20088	0.21831
3691.27232	0.22066
3689.34375	0.22840
3687.41519	0.23218
3685.48662	0.23117
3683.55806	0.23037
3681.62950	0.23056
3679.70093	0.23139
3677.77237	0.23463
3675.84380	0.24420
3673.91524	0.24921
3671.98667	0.24731
3670.05811	0.25103
3668.12954	0.25664
3666.20098	0.25705
3664.27242	0.25705
3662.34385	0.25890
3660.41529	0.26151
3658.48672	0.26472
3656.55816	0.27049
3654.62959	0.27436
3652.70103	0.27357
3650.77246	0.27565
3648.84390	0.28885
3646.91534	0.29827
3644.98677	0.30008
3643.05821	0.30140
3641.12964	0.30453
3639.20108	0.30892
3637.27251	0.31316
3635.34395	0.31680
3633.41538	0.31942
3631.48682	0.32186
3629.55826	0.33193
3627.62969	0.34686
3625.70113	0.35165
3623.77256	0.35257
3621.84400	0.35439
3619.91543	0.36088
3617.98687	0.37048
3616.05830	0.37561
3614.12974	0.37924
3612.20118	0.38400
3610.27261	0.38884
3608.34405	0.39635
3606.41548	0.40412
3604.48692	0.40761
3602.55835	0.41129
3600.62979	0.41886
3598.70123	0.42622
3596.77266	0.43149
3594.84410	0.43893
3592.91553	0.44714
3590.98697	0.45206
3589.05840	0.45787
3587.12984	0.46749
3585.20127	0.47319
3583.27271	0.47626
3581.34415	0.48222
3579.41558	0.49037
3577.48702	0.49708
3575.55845	0.50231
3573.62989	0.50818
3571.70132	0.51468
3569.77276	0.52158
3567.84419	0.53197
3565.91563	0.54349
3563.98707	0.54948
3562.05850	0.55498
3560.12994	0.56218
3558.20137	0.56856
3556.27281	0.57389
3554.34424	0.58046
3552.41568	0.58965
3550.48711	0.59843
3548.55855	0.60530
3546.62999	0.61346
3544.70142	0.62266
3542.77286	0.62967
3540.84429	0.63595
3538.91573	0.64306
3536.98716	0.65069
3535.05860	0.65802
3533.13003	0.66447
3531.20147	0.67099
3529.27291	0.67823
3527.34434	0.68665
3525.41578	0.69731
3523.48721	0.70857
3521.55865	0.71792
3519.63008	0.72660
3517.70152	0.73541
3515.77295	0.74222
3513.84439	0.74849
3511.91583	0.75812
3509.98726	0.77139
3508.05870	0.78402
3506.13013	0.79343
3504.20157	0.80288
3502.27300	0.81364
3500.34444	0.82386
3498.41587	0.83478
3496.48731	0.84726
3494.55875	0.85929
3492.63018	0.86939
3490.70162	0.87857
3488.77305	0.88775
3486.84449	0.89535
3484.91592	0.89824
3482.98736	0.89948
3481.05879	0.90515
3479.13023	0.91299
3477.20167	0.91962
3475.27310	0.92580
3473.34454	0.93186
3471.41597	0.93661
3469.48741	0.93983
3467.55884	0.94363
3465.63028	0.94766
3463.70171	0.95091
3461.77315	0.95590
3459.84459	0.96320
3457.91602	0.96837
3455.98746	0.97033
3454.05889	0.97446
3452.13033	0.98168
3450.20176	0.98736
3448.27320	0.99141
3446.34464	0.99562
3444.41607	0.99849
3442.48751	1.00058
3440.55894	1.00311
3438.63038	1.00602
3436.70181	1.00932
3434.77325	1.01142
3432.84468	1.01069
3430.91612	1.00803
3428.98756	1.00716
3427.05899	1.00940
3425.13043	1.01040
3423.20186	1.00892
3421.27330	1.00991
3419.34473	1.01418
3417.41617	1.01693
3415.48760	1.01770
3413.55904	1.01882
3411.63048	1.02032
3409.70191	1.02073
3407.77335	1.01984
3405.84478	1.01848
3403.91622	1.01766
3401.98765	1.01972
3400.05909	1.02419
3398.13052	1.02759
3396.20196	1.02938
3394.27340	1.03109
3392.34483	1.03228
3390.41627	1.03195
3388.48770	1.03164
3386.55914	1.03154
3384.63057	1.02950
3382.70201	1.02735
3380.77344	1.02908
3378.84488	1.03302
3376.91632	1.03542
3374.98775	1.03782
3373.05919	1.04109
3371.13062	1.04378
3369.20206	1.04697
3367.27349	1.05096
3365.34493	1.05412
3363.41636	1.05660
3361.48780	1.05917
3359.55924	1.06078
3357.63067	1.06206
3355.70211	1.06368
3353.77354	1.06464
3351.84498	1.06664
3349.91641	1.07049
3347.98785	1.07429
3346.05928	1.07788
3344.13072	1.08280
3342.20216	1.08891
3340.27359	1.09371
3338.34503	1.09557
3336.41646	1.09636
3334.48790	1.09979
3332.55933	1.10509
3330.63077	1.11003
3328.70220	1.11575
3326.77364	1.12162
3324.84508	1.12777
3322.91651	1.13483
3320.98795	1.14041
3319.05938	1.14496
3317.13082	1.14956
3315.20225	1.15388
3313.27369	1.15863
3311.34513	1.16319
3309.41656	1.16660
3307.48800	1.16813
3305.55943	1.16852
3303.63087	1.17127
3301.70230	1.17643
3299.77374	1.18100
3297.84517	1.18407
3295.91661	1.18522
3293.98805	1.18675
3292.05948	1.19183
3290.13092	1.19655
3288.20235	1.19600
3286.27379	1.19293
3284.34522	1.19234
3282.41666	1.19276
3280.48809	1.19005
3278.55953	1.18706
3276.63097	1.18813
3274.70240	1.19025
3272.77384	1.18818
3270.84527	1.18369
3268.91671	1.18077
3266.98814	1.17698
3265.05958	1.16920
3263.13101	1.16021
3261.20245	1.15249
3259.27389	1.14344
3257.34532	1.13314
3255.41676	1.12552
3253.48819	1.11996
3251.55963	1.11408
3249.63106	1.10728
3247.70250	1.09772
3245.77393	1.08485
3243.84537	1.07303
3241.91681	1.06636
3239.98824	1.06192
3238.05968	1.05519
3236.13111	1.04656
3234.20255	1.03732
3232.27398	1.02824
3230.34542	1.02049
3228.41685	1.01364
3226.48829	1.00776
3224.55973	1.00391
3222.63116	1.00149
3220.70260	0.99811
3218.77403	0.99210
3216.84547	0.98509
3214.91690	0.97795
3212.98834	0.97026
3211.05977	0.96422
3209.13121	0.96038
3207.20265	0.95618
3205.27408	0.95037
3203.34552	0.94357
3201.41695	0.93715
3199.48839	0.93228
3197.55982	0.92840
3195.63126	0.92329
3193.70269	0.91611
3191.77413	0.90913
3189.84557	0.90388
3187.91700	0.89910
3185.98844	0.89425
3184.05987	0.88891
3182.13131	0.88165
3180.20274	0.87339
3178.27418	0.86593
3176.34562	0.85956
3174.41705	0.85390
3172.48849	0.84866
3170.55992	0.84353
3168.63136	0.83771
3166.70279	0.83175
3164.77423	0.82703
3162.84566	0.82288
3160.91710	0.81787
3158.98854	0.81269
3157.05997	0.80880
3155.13141	0.80503
3153.20284	0.80047
3151.27428	0.79721
3149.34571	0.79566
3147.41715	0.79337
3145.48858	0.78959
3143.56002	0.78631
3141.63146	0.78488
3139.70289	0.78443
3137.77433	0.78333
3135.84576	0.78160
3133.91720	0.78075
3131.98863	0.78109
3130.06007	0.78162
3128.13150	0.78235
3126.20294	0.78396
3124.27438	0.78590
3122.34581	0.78696
3120.41725	0.78765
3118.48868	0.78958
3116.56012	0.79246
3114.63155	0.79442
3112.70299	0.79498
3110.77442	0.79522
3108.84586	0.79572
3106.91730	0.79642
3104.98873	0.79636
3103.06017	0.79519
3101.13160	0.79471
3099.20304	0.79514
3097.27447	0.79424
3095.34591	0.79169
3093.41734	0.78916
3091.48878	0.78779
3089.56022	0.78685
3087.63165	0.78507
3085.70309	0.78260
3083.77452	0.77990
3081.84596	0.77728
3079.91739	0.77463
3077.98883	0.77109
3076.06026	0.76730
3074.13170	0.76442
3072.20314	0.76162
3070.27457	0.75728
3068.34601	0.75139
3066.41744	0.74591
3064.48888	0.74223
3062.56031	0.73883
3060.63175	0.73398
3058.70318	0.72838
3056.77462	0.72281
3054.84606	0.71717
3052.91749	0.71245
3050.98893	0.70944
3049.06036	0.70677
3047.13180	0.70267
3045.20323	0.69782
3043.27467	0.69368
3041.34610	0.68976
3039.41754	0.68532
3037.48898	0.68094
3035.56041	0.67704
3033.63185	0.67325
3031.70328	0.66986
3029.77472	0.66760
3027.84615	0.66537
3025.91759	0.66202
3023.98903	0.65873
3022.06046	0.65715
3020.13190	0.65643
3018.20333	0.65469
3016.27477	0.65239
3014.34620	0.65074
3012.41764	0.64920
3010.48907	0.64738
3008.56051	0.64592
3006.63195	0.64516
3004.70338	0.64517
3002.77482	0.64545
3000.84625	0.64510
2998.91769	0.64455
2996.98912	0.64520
2995.06056	0.64751
2993.13199	0.65114
2991.20343	0.65589
2989.27487	0.66166
2987.34630	0.66873
2985.41774	0.67697
2983.48917	0.68525
2981.56061	0.69331
2979.63204	0.70185
2977.70348	0.71078
2975.77491	0.71921
2973.84635	0.72667
2971.91779	0.73379
2969.98922	0.74183
2968.06066	0.75146
2966.13209	0.76102
2964.20353	0.76765
2962.27496	0.77096
2960.34640	0.77174
2958.41783	0.76915
2956.48927	0.76261
2954.56071	0.75414
2952.63214	0.74672
2950.70358	0.74139
2948.77501	0.73782
2946.84645	0.73718
2944.91788	0.74109
2942.98932	0.74834
2941.06075	0.75689
2939.13219	0.76691
2937.20363	0.77879
2935.27506	0.79131
2933.34650	0.80210
2931.41793	0.80975
2929.48937	0.81579
2927.56080	0.82187
2925.63224	0.82724
2923.70367	0.83071
2921.77511	0.83151
2919.84655	0.82929
2917.91798	0.82328
2915.98942	0.81046
2914.06085	0.79036
2912.13229	0.76827
2910.20372	0.74926
2908.27516	0.73436
2906.34659	0.72241
2904.41803	0.71275
2902.48947	0.70549
2900.56090	0.70032
2898.63234	0.69652
2896.70377	0.69358
2894.77521	0.69070
2892.84664	0.68709
2890.91808	0.68327
2888.98952	0.67963
2887.06095	0.67636
2885.13239	0.67466
2883.20382	0.67439
2881.27526	0.67429
2879.34669	0.67444
2877.41813	0.67489
2875.48956	0.67453
2873.56100	0.67207
2871.63244	0.66681
2869.70387	0.65981
2867.77531	0.65265
2865.84674	0.64557
2863.91818	0.63942
2861.98961	0.63665
2860.06105	0.63820
2858.13248	0.64276
2856.20392	0.64933
2854.27536	0.65707
2852.34679	0.66326
2850.41823	0.66277
2848.48966	0.65023
2846.56110	0.62704
2844.63253	0.60215
2842.70397	0.58239
2840.77540	0.56832
2838.84684	0.55784
2836.91828	0.54951
2834.98971	0.54296
2833.06115	0.53763
2831.13258	0.53283
2829.20402	0.52830
2827.27545	0.52390
2825.34689	0.51965
2823.41832	0.51596
2821.48976	0.51299
2819.56120	0.51015
2817.63263	0.50673
2815.70407	0.50283
2813.77550	0.49898
2811.84694	0.49550
2809.91837	0.49259
2807.98981	0.49031
2806.06124	0.48805
2804.13268	0.48511
2802.20412	0.48169
2800.27555	0.47812
2798.34699	0.47466
2796.41842	0.47209
2794.48986	0.47036
2792.56129	0.46799
2790.63273	0.46490
2788.70416	0.46252
2786.77560	0.46084
2784.84704	0.45881
2782.91847	0.45654
2780.98991	0.45481
2779.06134	0.45373
2777.13278	0.45251
2775.20421	0.45062
2773.27565	0.44860
2771.34708	0.44700
2769.41852	0.44546
2767.48996	0.44365
2765.56139	0.44172
2763.63283	0.43955
2761.70426	0.43731
2759.77570	0.43571
2757.84713	0.43441
2755.91857	0.43264
2753.99001	0.43088
2752.06144	0.42962
2750.13288	0.42871
2748.20431	0.42771
2746.27575	0.42615
2744.34718	0.42404
2742.41862	0.42207
2740.49005	0.42082
2738.56149	0.41976
2736.63293	0.41836
2734.70436	0.41725
2732.77580	0.41631
2730.84723	0.41463
2728.91867	0.41261
2726.99010	0.41085
2725.06154	0.40916
2723.13297	0.40735
2721.20441	0.40533
2719.27585	0.40347
2717.34728	0.40229
2715.41872	0.40136
2713.49015	0.39992
2711.56159	0.39799
2709.63302	0.39615
2707.70446	0.39459
2705.77589	0.39307
2703.84733	0.39149
2701.91877	0.38980
2699.99020	0.38791
2698.06164	0.38596
2696.13307	0.38425
2694.20451	0.38289
2692.27594	0.38176
2690.34738	0.38065
2688.41881	0.37953
2686.49025	0.37841
2684.56169	0.37707
2682.63312	0.37535
2680.70456	0.37345
2678.77599	0.37170
2676.84743	0.37017
2674.91886	0.36885
2672.99030	0.36752
2671.06173	0.36604
2669.13317	0.36476
2667.20461	0.36393
2665.27604	0.36308
2663.34748	0.36183
2661.41891	0.36023
2659.49035	0.35848
2657.56178	0.35701
2655.63322	0.35621
2653.70465	0.35582
2651.77609	0.35516
2649.84753	0.35426
2647.91896	0.35357
2645.99040	0.35307
2644.06183	0.35248
2642.13327	0.35170
2640.20470	0.35089
2638.27614	0.35029
2636.34757	0.34979
2634.41901	0.34904
2632.49045	0.34812
2630.56188	0.34743
2628.63332	0.34668
2626.70475	0.34567
2624.77619	0.34486
2622.84762	0.34440
2620.91906	0.34378
2618.99049	0.34268
2617.06193	0.34147
2615.13337	0.34049
2613.20480	0.33973
2611.27624	0.33889
2609.34767	0.33746
2607.41911	0.33552
2605.49054	0.33390
2603.56198	0.33273
2601.63342	0.33139
2599.70485	0.32974
2597.77629	0.32809
2595.84772	0.32663
2593.91916	0.32524
2591.99059	0.32380
2590.06203	0.32254
2588.13346	0.32144
2586.20490	0.32015
2584.27634	0.31884
2582.34777	0.31777
2580.41921	0.31676
2578.49064	0.31572
2576.56208	0.31484
2574.63351	0.31399
2572.70495	0.31295
2570.77638	0.31197
2568.84782	0.31119
2566.91926	0.31043
2564.99069	0.30971
2563.06213	0.30888
2561.13356	0.30778
2559.20500	0.30660
2557.27643	0.30562
2555.34787	0.30458
2553.41930	0.30302
2551.49074	0.30132
2549.56218	0.30008
2547.63361	0.29926
2545.70505	0.29856
2543.77648	0.29766
2541.84792	0.29630
2539.91935	0.29458
2537.99079	0.29305
2536.06222	0.29216
2534.13366	0.29148
2532.20510	0.29055
2530.27653	0.28969
2528.34797	0.28910
2526.41940	0.28841
2524.49084	0.28740
2522.56227	0.28629
2520.63371	0.28543
2518.70514	0.28479
2516.77658	0.28408
2514.84802	0.28346
2512.91945	0.28307
2510.99089	0.28267
2509.06232	0.28212
2507.13376	0.28141
2505.20519	0.28067
2503.27663	0.28015
2501.34806	0.27971
2499.41950	0.27892
2497.49094	0.27773
2495.56237	0.27656
2493.63381	0.27562
2491.70524	0.27477
2489.77668	0.27390
2487.84811	0.27285
2485.91955	0.27165
2483.99098	0.27057
2482.06242	0.26948
2480.13386	0.26806
2478.20529	0.26649
2476.27673	0.26513
2474.34816	0.26395
2472.41960	0.26276
2470.49103	0.26157
2468.56247	0.26051
2466.63391	0.25966
2464.70534	0.25885
2462.77678	0.25781
2460.84821	0.25654
2458.91965	0.25544
2456.99108	0.25462
2455.06252	0.25390
2453.13395	0.25329
2451.20539	0.25283
2449.27683	0.25240
2447.34826	0.25199
2445.41970	0.25156
2443.49113	0.25099
2441.56257	0.25041
2439.63400	0.24981
2437.70544	0.24922
2435.77687	0.24891
2433.84831	0.24879
2431.91975	0.24852
2429.99118	0.24806
2428.06262	0.24748
2426.13405	0.24695
2424.20549	0.24656
2422.27692	0.24604
2420.34836	0.24531
2418.41979	0.24478
2416.49123	0.24458
2414.56267	0.24443
2412.63410	0.24410
2410.70554	0.24361
2408.77697	0.24295
2406.84841	0.24198
2404.91984	0.24084
2402.99128	0.23991
2401.06271	0.23925
2399.13415	0.23861
2397.20559	0.23762
2395.27702	0.23633
2393.34846	0.23516
2391.41989	0.23427
2389.49133	0.23340
2387.56276	0.23240
2385.63420	0.23127
2383.70563	0.22984
2381.77707	0.22844
2379.84851	0.22747
2377.91994	0.22637
2375.99138	0.22476
2374.06281	0.22336
2372.13425	0.22275
2370.20568	0.22226
2368.27712	0.22082
2366.34855	0.21929
2364.41999	0.22012
2362.49143	0.22347
2360.56286	0.22650
2358.63430	0.22689
2356.70573	0.22585
2354.77717	0.22525
2352.84860	0.22504
2350.92004	0.22390
2348.99147	0.22148
2347.06291	0.21875
2345.13435	0.21754
2343.20578	0.21859
2341.27722	0.21940
2339.34865	0.21908
2337.42009	0.21934
2335.49152	0.22027
2333.56296	0.21999
2331.63440	0.21830
2329.70583	0.21703
2327.77727	0.21648
2325.84870	0.21582
2323.92014	0.21567
2321.99157	0.21651
2320.06301	0.21737
2318.13444	0.21726
2316.20588	0.21629
2314.27732	0.21543
2312.34875	0.21534
2310.42019	0.21560
2308.49162	0.21555
2306.56306	0.21516
2304.63449	0.21490
2302.70593	0.21527
2300.77736	0.21599
2298.84880	0.21635
2296.92024	0.21644
2294.99167	0.21670
2293.06311	0.21706
2291.13454	0.21737
2289.20598	0.21776
2287.27741	0.21820
2285.34885	0.21846
2283.42028	0.21862
2281.49172	0.21876
2279.56316	0.21863
2277.63459	0.21820
2275.70603	0.21792
2273.77746	0.21796
2271.84890	0.21793
2269.92033	0.21785
2267.99177	0.21797
2266.06320	0.21811
2264.13464	0.21803
2262.20608	0.21775
2260.27751	0.21733
2258.34895	0.21691
2256.42038	0.21670
2254.49182	0.21669
2252.56325	0.21663
2250.63469	0.21646
2248.70612	0.21637
2246.77756	0.21634
2244.84900	0.21600
2242.92043	0.21551
2240.99187	0.21538
2239.06330	0.21541
2237.13474	0.21525
2235.20617	0.21500
2233.27761	0.21480
2231.34904	0.21458
2229.42048	0.21424
2227.49192	0.21383
2225.56335	0.21353
2223.63479	0.21331
2221.70622	0.21298
2219.77766	0.21246
2217.84909	0.21189
2215.92053	0.21132
2213.99196	0.21064
2212.06340	0.20980
2210.13484	0.20907
2208.20627	0.20857
2206.27771	0.20798
2204.34914	0.20717
2202.42058	0.20637
2200.49201	0.20569
2198.56345	0.20503
2196.63488	0.20443
2194.70632	0.20398
2192.77776	0.20359
2190.84919	0.20331
2188.92063	0.20330
2186.99206	0.20348
2185.06350	0.20377
2183.13493	0.20409
2181.20637	0.20441
2179.27781	0.20485
2177.34924	0.20545
2175.42068	0.20626
2173.49211	0.20708
2171.56355	0.20770
2169.63498	0.20832
2167.70642	0.20923
2165.77785	0.21023
2163.84929	0.21104
2161.92073	0.21174
2159.99216	0.21240
2158.06360	0.21293
2156.13503	0.21334
2154.20647	0.21376
2152.27790	0.21427
2150.34934	0.21482
2148.42077	0.21540
2146.49221	0.21588
2144.56365	0.21621
2142.63508	0.21657
2140.70652	0.21710
2138.77795	0.21783
2136.84939	0.21865
2134.92082	0.21921
2132.99226	0.21927
2131.06369	0.21910
2129.13513	0.21915
2127.20657	0.21936
2125.27800	0.21941
2123.34944	0.21921
2121.42087	0.21902
2119.49231	0.21897
2117.56374	0.21890
2115.63518	0.21879
2113.70661	0.21877
2111.77805	0.21853
2109.84949	0.21787
2107.92092	0.21722
2105.99236	0.21676
2104.06379	0.21606
2102.13523	0.21511
2100.20666	0.21430
2098.27810	0.21360
2096.34953	0.21290
2094.42097	0.21225
2092.49241	0.21156
2090.56384	0.21076
2088.63528	0.20984
2086.70671	0.20890
2084.77815	0.20819
2082.84958	0.20755
2080.92102	0.20677
2078.99245	0.20604
2077.06389	0.20536
2075.13533	0.20471
2073.20676	0.20413
2071.27820	0.20339
2069.34963	0.20236
2067.42107	0.20132
2065.49250	0.20063
2063.56394	0.20017
2061.63537	0.19955
2059.70681	0.19888
2057.77825	0.19832
2055.84968	0.19776
2053.92112	0.19721
2051.99255	0.19688
2050.06399	0.19673
2048.13542	0.19648
2046.20686	0.19601
2044.27830	0.19555
2042.34973	0.19553
2040.42117	0.19591
2038.49260	0.19631
2036.56404	0.19656
2034.63547	0.19656
2032.70691	0.19639
2030.77834	0.19660
2028.84978	0.19736
2026.92122	0.19812
2024.99265	0.19862
2023.06409	0.19909
2021.13552	0.19969
2019.20696	0.20052
2017.27839	0.20167
2015.34983	0.20282
2013.42126	0.20374
2011.49270	0.20469
2009.56414	0.20583
2007.63557	0.20686
2005.70701	0.20759
2003.77844	0.20818
2001.84988	0.20881
1999.92131	0.20939
1997.99275	0.20957
1996.06418	0.20927
1994.13562	0.20893
1992.20706	0.20892
1990.27849	0.20883
1988.34993	0.20829
1986.42136	0.20760
1984.49280	0.20682
1982.56423	0.20588
1980.63567	0.20481
1978.70710	0.20369
1976.77854	0.20269
1974.84998	0.20184
1972.92141	0.20098
1970.99285	0.19996
1969.06428	0.19909
1967.13572	0.19862
1965.20715	0.19806
1963.27859	0.19729
1961.35002	0.19680
1959.42146	0.19651
1957.49290	0.19610
1955.56433	0.19564
1953.63577	0.19526
1951.70720	0.19498
1949.77864	0.19482
1947.85007	0.19466
1945.92151	0.19432
1943.99294	0.19395
1942.06438	0.19383
1940.13582	0.19354
1938.20725	0.19297
1936.27869	0.19247
1934.35012	0.19204
1932.42156	0.19154
1930.49299	0.19094
1928.56443	0.19031
1926.63586	0.18966
1924.70730	0.18928
1922.77874	0.18930
1920.85017	0.18908
1918.92161	0.18920
1916.99304	0.19003
1915.06448	0.19024
1913.13591	0.19003
1911.20735	0.19057
1909.27878	0.19187
1907.35022	0.19299
1905.42166	0.19368
1903.49309	0.19452
1901.56453	0.19562
1899.63596	0.19668
1897.70740	0.19769
1895.77883	0.19916
1893.85027	0.20079
1891.92171	0.20175
1889.99314	0.20297
1888.06458	0.20463
1886.13601	0.20554
1884.20745	0.20593
1882.27888	0.20634
1880.35032	0.20677
1878.42175	0.20707
1876.49319	0.20704
1874.56463	0.20655
1872.63606	0.20571
1870.70750	0.20508
1868.77893	0.20545
1866.85037	0.20564
1864.92180	0.20451
1862.99324	0.20304
1861.06467	0.20174
1859.13611	0.20048
1857.20755	0.19908
1855.27898	0.19758
1853.35042	0.19609
1851.42185	0.19461
1849.49329	0.19313
1847.56472	0.19159
1845.63616	0.19069
1843.70759	0.19108
1841.77903	0.19077
1839.85047	0.18945
1837.92190	0.18867
1835.99334	0.18855
1834.06477	0.18786
1832.13621	0.18705
1830.20764	0.18793
1828.27908	0.18941
1826.35051	0.18979
1824.42195	0.19018
1822.49339	0.19043
1820.56482	0.19032
1818.63626	0.19061
1816.70769	0.19105
1814.77913	0.19104
1812.85056	0.19110
1810.92200	0.19217
1808.99343	0.19346
1807.06487	0.19381
1805.13631	0.19357
1803.20774	0.19338
1801.27918	0.19408
1799.35061	0.19536
1797.42205	0.19571
1795.49348	0.19520
1793.56492	0.19556
1791.63635	0.19782
1789.70779	0.19883
1787.77923	0.19814
1785.85066	0.19774
1783.92210	0.19784
1781.99353	0.19812
1780.06497	0.19887
1778.13640	0.19924
1776.20784	0.19856
1774.27927	0.19818
1772.35071	0.19984
1770.42215	0.20172
1768.49358	0.20218
1766.56502	0.20199
1764.63645	0.20146
1762.70789	0.20187
1760.77932	0.20356
1758.85076	0.20505
1756.92220	0.20737
1754.99363	0.20992
1753.06507	0.21182
1751.13650	0.21599
1749.20794	0.22360
1747.27937	0.22998
1745.35081	0.23396
1743.42224	0.23726
1741.49368	0.24080
1739.56512	0.24426
1737.63655	0.24567
1735.70799	0.24608
1733.77942	0.24969
1731.85086	0.25320
1729.92229	0.25421
1727.99373	0.25539
1726.06516	0.25734
1724.13660	0.26092
1722.20804	0.26482
1720.27947	0.26813
1718.35091	0.27560
1716.42234	0.29152
1714.49378	0.30484
1712.56521	0.31460
1710.63665	0.32565
1708.70808	0.33945
1706.77952	0.36096
1704.85096	0.39048
1702.92239	0.41673
1700.99383	0.45234
1699.06526	0.50983
1697.13670	0.56394
1695.20813	0.61527
1693.27957	0.65243
1691.35100	0.68178
1689.42244	0.71805
1687.49388	0.75158
1685.56531	0.78499
1683.63675	0.84080
1681.70818	0.88389
1679.77962	0.90755
1677.85105	0.92865
1675.92249	0.95443
1673.99392	0.98223
1672.06536	1.00251
1670.13680	1.02393
1668.20823	1.04700
1666.27967	1.05812
1664.35110	1.06626
1662.42254	1.07879
1660.49397	1.08984
1658.56541	1.09574
1656.63684	1.09747
1654.70828	1.09843
1652.77972	1.10394
1650.85115	1.10623
1648.92259	1.10562
1646.99402	1.10758
1645.06546	1.10941
1643.13689	1.10723
1641.20833	1.10389
1639.27976	1.09935
1637.35120	1.09544
1635.42264	1.09492
1633.49407	1.09244
1631.56551	1.08754
1629.63694	1.08200
1627.70838	1.07604
1625.77981	1.06780
1623.85125	1.05588
1621.92269	1.04191
1619.99412	1.02909
1618.06556	1.01235
1616.13699	0.98600
1614.20843	0.96291
1612.27986	0.94361
1610.35130	0.92213
1608.42273	0.89953
1606.49417	0.88002
1604.56561	0.86482
1602.63704	0.85273
1600.70848	0.84382
1598.77991	0.83749
1596.85135	0.83262
1594.92278	0.82901
1592.99422	0.82691
1591.06565	0.82665
1589.13709	0.82857
1587.20853	0.83306
1585.27996	0.84019
1583.35140	0.84963
1581.42283	0.85960
1579.49427	0.86820
1577.56570	0.87940
1575.63714	0.89865
1573.70857	0.91290
1571.78001	0.92181
1569.85145	0.93596
1567.92288	0.95133
1565.99432	0.96114
1564.06575	0.96970
1562.13719	0.97593
1560.20862	0.98286
1558.28006	1.00118
1556.35149	1.01164
1554.42293	1.01609
1552.49437	1.01956
1550.56580	1.02134
1548.63724	1.02185
1546.70867	1.02114
1544.78011	1.01881
1542.85154	1.01585
1540.92298	1.01124
1538.99441	1.00152
1537.06585	0.99524
1535.13729	0.99064
1533.20872	0.98523
1531.28016	0.97947
1529.35159	0.97460
1527.42303	0.97022
1525.49446	0.96569
1523.56590	0.96201
1521.63733	0.95978
1519.70877	0.95860
1517.78021	0.95533
1515.85164	0.94587
1513.92308	0.93196
1511.99451	0.91714
1510.06595	0.90237
1508.13738	0.88131
1506.20882	0.84900
1504.28025	0.83014
1502.35169	0.81621
1500.42313	0.79994
1498.49456	0.77989
1496.56600	0.75706
1494.63743	0.73838
1492.70887	0.72455
1490.78030	0.70979
1488.85174	0.69185
1486.92317	0.67735
1484.99461	0.66743
1483.06605	0.66020
1481.13748	0.65536
1479.20892	0.65371
1477.28035	0.65598
1475.35179	0.66322
1473.42322	0.67937
1471.49466	0.69914
1469.56610	0.70957
1467.63753	0.71567
1465.70897	0.72392
1463.78040	0.73350
1461.85184	0.73902
1459.92327	0.74243
1457.99471	0.75152
1456.06614	0.76538
1454.13758	0.76930
1452.20902	0.76864
1450.28045	0.76714
1448.35189	0.76531
1446.42332	0.76280
1444.49476	0.75952
1442.56619	0.75525
1440.63763	0.75008
1438.70906	0.74416
1436.78050	0.73596
1434.85194	0.72571
1432.92337	0.71593
1430.99481	0.70628
1429.06624	0.69748
1427.13768	0.69079
1425.20911	0.68560
1423.28055	0.68188
1421.35198	0.67980
1419.42342	0.67987
1417.49486	0.68134
1415.56629	0.68056
1413.63773	0.67780
1411.70916	0.67483
1409.78060	0.67273
1407.85203	0.67171
1405.92347	0.67233
1403.99490	0.67446
1402.06634	0.67634
1400.13778	0.67833
1398.20921	0.68128
1396.28065	0.68467
1394.35208	0.68840
1392.42352	0.69217
1390.49495	0.69673
1388.56639	0.70572
1386.63782	0.72150
1384.70926	0.73840
1382.78070	0.75294
1380.85213	0.76464
1378.92357	0.77090
1376.99500	0.77043
1375.06644	0.76319
1373.13787	0.75058
1371.20931	0.73600
1369.28074	0.71834
1367.35218	0.69793
1365.42362	0.67909
1363.49505	0.66133
1361.56649	0.64469
1359.63792	0.63268
1357.70936	0.62439
1355.78079	0.61805
1353.85223	0.61324
1351.92366	0.60949
1349.99510	0.60642
1348.06654	0.60405
1346.13797	0.60253
1344.20941	0.60195
1342.28084	0.60211
1340.35228	0.60352
1338.42371	0.60680
1336.49515	0.61134
1334.56659	0.61750
1332.63802	0.62598
1330.70946	0.63593
1328.78089	0.64533
1326.85233	0.65249
1324.92376	0.65695
1322.99520	0.65962
1321.06663	0.66233
1319.13807	0.66612
1317.20951	0.67002
1315.28094	0.67284
1313.35238	0.67504
1311.42381	0.67689
1309.49525	0.67769
1307.56668	0.67712
1305.63812	0.67538
1303.70955	0.67294
1301.78099	0.67016
1299.85243	0.66658
1297.92386	0.66109
1295.99530	0.65409
1294.06673	0.64753
1292.13817	0.64268
1290.20960	0.63984
1288.28104	0.63885
1286.35247	0.63899
1284.42391	0.63933
1282.49535	0.63956
1280.56678	0.64013
1278.63822	0.64164
1276.70965	0.64464
1274.78109	0.64942
1272.85252	0.65587
1270.92396	0.66370
1268.99539	0.67258
1267.06683	0.68203
1265.13827	0.69087
1263.20970	0.69767
1261.28114	0.70212
1259.35257	0.70492
1257.42401	0.70698
1255.49544	0.70908
1253.56688	0.71166
1251.63831	0.71405
1249.70975	0.71546
1247.78119	0.71631
1245.85262	0.71698
1243.92406	0.71695
1241.99549	0.71615
1240.06693	0.71461
1238.13836	0.71165
1236.20980	0.70709
1234.28123	0.70145
1232.35267	0.69485
1230.42411	0.68693
1228.49554	0.67769
1226.56698	0.66733
1224.63841	0.65585
1222.70985	0.64379
1220.78128	0.63206
1218.85272	0.62136
1216.92415	0.61220
1214.99559	0.60517
1213.06703	0.60100
1211.13846	0.59988
1209.20990	0.60088
1207.28133	0.60202
1205.35277	0.60061
1203.42420	0.59513
1201.49564	0.58700
1199.56708	0.57848
1197.63851	0.57022
1195.70995	0.56228
1193.78138	0.55553
1191.85282	0.55095
1189.92425	0.54871
1187.99569	0.54831
1186.06712	0.54959
1184.13856	0.55265
1182.21000	0.55724
1180.28143	0.56326
1178.35287	0.57109
1176.42430	0.58074
1174.49574	0.59176
1172.56717	0.60387
1170.63861	0.61770
1168.71004	0.63417
1166.78148	0.65260
1164.85292	0.67135
1162.92435	0.68891
1160.99579	0.70314
1159.06722	0.71176
1157.13866	0.71392
1155.21009	0.70962
1153.28153	0.69936
1151.35296	0.68550
1149.42440	0.67087
1147.49584	0.65646
1145.56727	0.64280
1143.63871	0.63183
1141.71014	0.62546
1139.78158	0.62406
1137.85301	0.62648
1135.92445	0.63127
1133.99588	0.63818
1132.06732	0.64824
1130.13876	0.66237
1128.21019	0.67965
1126.28163	0.69786
1124.35306	0.71607
1122.42450	0.73359
1120.49593	0.74828
1118.56737	0.75889
1116.63880	0.76571
1114.71024	0.76821
1112.78168	0.76604
1110.85311	0.76093
1108.92455	0.75492
1106.99598	0.74868
1105.06742	0.74272
1103.13885	0.73786
1101.21029	0.73446
1099.28172	0.73308
1097.35316	0.73461
1095.42460	0.73971
1093.49603	0.74848
1091.56747	0.75987
1089.63890	0.77284
1087.71034	0.78775
1085.78177	0.80482
1083.85321	0.82250
1081.92464	0.83812
1079.99608	0.84984
1078.06752	0.85689
1076.13895	0.85910
1074.21039	0.85714
1072.28182	0.85170
1070.35326	0.84386
1068.42469	0.83533
1066.49613	0.82693
1064.56756	0.81853
1062.63900	0.81010
1060.71044	0.80163
1058.78187	0.79340
1056.85331	0.78585
1054.92474	0.77921
1052.99618	0.77429
1051.06761	0.77167
1049.13905	0.77128
1047.21049	0.77352
1045.28192	0.77873
1043.35336	0.78687
1041.42479	0.79743
1039.49623	0.80814
1037.56766	0.81597
1035.63910	0.82067
1033.71053	0.82434
1031.78197	0.82669
1029.85341	0.82559
1027.92484	0.82088
1025.99628	0.81386
1024.06771	0.80569
1022.13915	0.79735
1020.21058	0.78935
1018.28202	0.78152
1016.35345	0.77368
1014.42489	0.76494
1012.49633	0.75245
1010.56776	0.73438
1008.63920	0.71210
1006.71063	0.68831
1004.78207	0.66509
1002.85350	0.64324
1000.92494	0.62314
998.99637	0.60578
997.06781	0.59148
995.13925	0.57899
993.21068	0.56706
991.28212	0.55509
989.35355	0.54275
987.42499	0.53041
985.49642	0.51903
983.56786	0.50974
981.63929	0.50314
979.71073	0.49895
977.78217	0.49597
975.85360	0.49255
973.92504	0.48728
971.99647	0.47933
970.06791	0.46898
968.13934	0.45786
966.21078	0.44807
964.28221	0.44138
962.35365	0.43935
960.42509	0.44374
958.49652	0.45453
956.56796	0.46690
954.63939	0.47377
952.71083	0.47230
950.78226	0.46486
948.85370	0.45516
946.92513	0.44643
944.99657	0.44063
943.06801	0.43777
941.13944	0.43703
939.21088	0.43797
937.28231	0.44040
935.35375	0.44384
933.42518	0.44777
931.49662	0.45195
929.56805	0.45658
927.63949	0.46184
925.71093	0.46748
923.78236	0.47316
921.85380	0.47839
919.92523	0.48212
917.99667	0.48382
916.06810	0.48422
914.13954	0.48411
912.21098	0.48373
910.28241	0.48372
908.35385	0.48482
906.42528	0.48650
904.49672	0.48809
902.56815	0.48933
900.63959	0.48935
898.71102	0.48736
896.78246	0.48349
894.85390	0.47801
892.92533	0.47126
890.99677	0.46409
889.06820	0.45695
887.13964	0.44989
885.21107	0.44366
883.28251	0.43900
881.35394	0.43581
879.42538	0.43359
877.49682	0.43176
875.56825	0.43037
873.63969	0.43003
871.71112	0.43051
869.78256	0.43141
867.85399	0.43312
865.92543	0.43579
863.99686	0.43912
862.06830	0.44319
860.13974	0.44805
858.21117	0.45352
856.28261	0.45958
854.35404	0.46593
852.42548	0.47187
850.49691	0.47700
848.56835	0.48093
846.63978	0.48401
844.71122	0.48746
842.78266	0.49152
840.85409	0.49582
838.92553	0.50027
836.99696	0.50427
835.06840	0.50795
833.13983	0.51187
831.21127	0.51557
829.28270	0.51877
827.35414	0.52206
825.42558	0.52570
823.49701	0.52908
821.56845	0.53150
819.63988	0.53341
817.71132	0.53583
815.78275	0.53881
813.85419	0.54179
811.92562	0.54444
809.99706	0.54678
808.06850	0.54940
806.13993	0.55242
804.21137	0.55525
802.28280	0.55804
800.35424	0.56082
798.42567	0.56281
796.49711	0.56375
794.56854	0.56455
792.63998	0.56605
790.71142	0.56797
788.78285	0.56978
786.85429	0.57107
784.92572	0.57206
782.99716	0.57327
781.06859	0.57409
779.14003	0.57404
777.21147	0.57376
775.28290	0.57375
773.35434	0.57349
771.42577	0.57243
769.49721	0.57090
767.56864	0.56949
765.64008	0.56860
763.71151	0.56852
761.78295	0.56926
759.85439	0.57024
757.92582	0.57109
755.99726	0.57227
754.06869	0.57413
752.14013	0.57622
750.21156	0.57842
748.28300	0.58081
746.35443	0.58262
744.42587	0.58394
742.49731	0.58611
740.56874	0.58879
738.64018	0.59075
736.71161	0.59278
734.78305	0.59534
732.85448	0.59727
730.92592	0.59837
728.99735	0.59921
727.06879	0.59959
725.14023	0.59908
723.21166	0.59759
721.28310	0.59569
719.35453	0.59413
717.42597	0.59222
715.49740	0.58855
713.56884	0.58349
711.64027	0.57897
709.71171	0.57548
707.78315	0.57199
705.85458	0.56848
703.92602	0.56524
701.99745	0.56219
700.06889	0.55956
698.14032	0.55762
696.21176	0.55662
694.28319	0.55616
692.35463	0.55574
690.42607	0.55663
688.49750	0.55998
686.56894	0.56465
684.64037	0.56955
682.71181	0.57535
680.78324	0.58206
678.85468	0.58889
676.92611	0.59618
674.99755	0.60421
673.06899	0.61149
671.14042	0.61703
669.21186	0.62578
667.28329	0.63927
665.35473	0.64535
663.42616	0.64763
661.49760	0.64985
659.56903	0.65132
657.64047	0.65215
655.71191	0.65279
653.78334	0.65180
651.85478	0.64752
649.92621	0.64126
647.99765	0.63598
646.06908	0.63298
644.14052	0.63158
642.21195	0.63106
640.28339	0.63125
638.35483	0.63134
636.42626	0.62982
634.49770	0.62647
632.56913	0.62414
630.64057	0.62477
628.71200	0.62713
626.78344	0.63030
624.85488	0.63301
622.92631	0.63453
620.99775	0.63722
619.06918	0.64223
617.14062	0.64681
615.21205	0.64986
613.28349	0.65393
611.35492	0.65773
609.42636	0.65742
607.49780	0.65383
605.56923	0.64968
603.64067	0.64491
601.71210	0.63798
599.78354	0.62898
