3997.91406	0.43522
3995.98550	0.43559
3994.05693	0.43503
3992.12837	0.43425
3990.19980	0.43322
3988.27124	0.43174
3986.34268	0.43185
3984.41411	0.43385
3982.48555	0.43462
3980.55698	0.43327
3978.62842	0.43210
3976.69985	0.43186
3974.77129	0.43150
3972.84272	0.43060
3970.91416	0.42976
3968.98560	0.42979
3967.05703	0.43072
3965.12847	0.43149
3963.19990	0.43067
3961.27134	0.42837
3959.34277	0.42653
3957.41421	0.42602
3955.48564	0.42539
3953.55708	0.42319
3951.62852	0.42085
3949.69995	0.42058
3947.77139	0.42186
3945.84282	0.42278
3943.91426	0.42237
3941.98569	0.42034
3940.05713	0.41808
3938.12856	0.41774
3936.20000	0.41914
3934.27144	0.41972
3932.34287	0.41867
3930.41431	0.41811
3928.48574	0.41858
3926.55718	0.41886
3924.62861	0.41863
3922.70005	0.41839
3920.77148	0.41835
3918.84292	0.41876
3916.91436	0.41847
3914.98579	0.41613
3913.05723	0.41402
3911.12866	0.41412
3909.20010	0.41472
3907.27153	0.41337
3905.34297	0.41105
3903.41440	0.41118
3901.48584	0.41270
3899.55728	0.41204
3897.62871	0.41022
3895.70015	0.40934
3893.77158	0.40916
3891.84302	0.40826
3889.91445	0.40660
3887.98589	0.40531
3886.05733	0.40482
3884.12876	0.40516
3882.20020	0.40472
3880.27163	0.40327
3878.34307	0.40262
3876.41450	0.40235
3874.48594	0.40171
3872.55737	0.40166
3870.62881	0.40277
3868.70025	0.40391
3866.77168	0.40443
3864.84312	0.40300
3862.91455	0.39927
3860.98599	0.39756
3859.05742	0.39849
3857.12886	0.39981
3855.20029	0.40114
3853.27173	0.40189
3851.34317	0.39935
3849.41460	0.39714
3847.48604	0.39626
3845.55747	0.39548
3843.62891	0.39461
3841.70034	0.39425
3839.77178	0.39386
3837.84321	0.39350
3835.91465	0.39367
3833.98609	0.39361
3832.05752	0.39290
3830.12896	0.39201
3828.20039	0.39149
3826.27183	0.39122
3824.34326	0.39089
3822.41470	0.39036
3820.48613	0.39006
3818.55757	0.39007
3816.62901	0.38958
3814.70044	0.38920
3812.77188	0.38925
3810.84331	0.38863
3808.91475	0.38746
3806.98618	0.38754
3805.05762	0.38863
3803.12905	0.38914
3801.20049	0.38900
3799.27193	0.38780
3797.34336	0.38628
3795.41480	0.38540
3793.48623	0.38454
3791.55767	0.38350
3789.62910	0.38297
3787.70054	0.38282
3785.77197	0.38249
3783.84341	0.38209
3781.91485	0.38169
3779.98628	0.38117
3778.05772	0.38051
3776.12915	0.37986
3774.20059	0.37954
3772.27202	0.37953
3770.34346	0.37928
3768.41489	0.37865
3766.48633	0.37865
3764.55777	0.37948
3762.62920	0.37967
3760.70064	0.37881
3758.77207	0.37818
3756.84351	0.37781
3754.91494	0.37688
3752.98638	0.37566
3751.05781	0.37397
3749.12925	0.37183
3747.20069	0.37053
3745.27212	0.37085
3743.34356	0.37247
3741.41499	0.37373
3739.48643	0.37483
3737.55786	0.37616
3735.62930	0.37695
3733.70074	0.37614
3731.77217	0.37440
3729.84361	0.37322
3727.91504	0.37360
3725.98648	0.37429
3724.05791	0.37238
3722.12935	0.36936
3720.20078	0.36866
3718.27222	0.36971
3716.34366	0.37044
3714.41509	0.37024
3712.48653	0.37051
3710.55796	0.37270
3708.62940	0.37317
3706.70083	0.37198
3704.77227	0.37077
3702.84370	0.36962
3700.91514	0.36928
3698.98658	0.36964
3697.05801	0.37014
3695.12945	0.37095
3693.20088	0.37136
3691.27232	0.37090
3689.34375	0.37236
3687.41519	0.37630
3685.48662	0.37894
3683.55806	0.38088
3681.62950	0.38328
3679.70093	0.38591
3677.77237	0.38845
3675.84380	0.39140
3673.91524	0.39368
3671.98667	0.39519
3670.05811	0.39858
3668.12954	0.40228
3666.20098	0.40460
3664.27242	0.40783
3662.34385	0.41189
3660.41529	0.41487
3658.48672	0.41793
3656.55816	0.42385
3654.62959	0.42944
3652.70103	0.43242
3650.77246	0.43698
3648.84390	0.44593
3646.91534	0.45180
3644.98677	0.45446
3643.05821	0.45746
3641.12964	0.46194
3639.20108	0.46750
3637.27251	0.47289
3635.34395	0.47778
3633.41538	0.48298
3631.48682	0.48854
3629.55826	0.49652
3627.62969	0.50656
3625.70113	0.51364
3623.77256	0.51974
3621.84400	0.52598
3619.91543	0.53303
3617.98687	0.54063
3616.05830	0.54668
3614.12974	0.55170
3612.20118	0.55643
3610.27261	0.56136
3608.34405	0.56952
3606.41548	0.58025
3604.48692	0.58852
3602.55835	0.59483
3600.62979	0.60133
3598.70123	0.60856
3596.77266	0.61664
3594.84410	0.62543
3592.91553	0.63279
3590.98697	0.63834
3589.05840	0.64700
3587.12984	0.66072
3585.20127	0.67084
3583.27271	0.67725
3581.34415	0.68347
3579.41558	0.68933
3577.48702	0.69543
3575.55845	0.70299
3573.62989	0.71069
3571.70132	0.71762
3569.77276	0.72452
3567.84419	0.73453
3565.91563	0.74828
3563.98707	0.75727
3562.05850	0.76323
3560.12994	0.77086
3558.20137	0.77876
3556.27281	0.78502
3554.34424	0.79222
3552.41568	0.80163
3550.48711	0.80950
3548.55855	0.81618
3546.62999	0.82542
3544.70142	0.83709
3542.77286	0.84817
3540.84429	0.85684
3538.91573	0.86447
3536.98716	0.87412
3535.05860	0.88353
3533.13003	0.89003
3531.20147	0.89697
3529.27291	0.90491
3527.34434	0.91304
3525.41578	0.92366
3523.48721	0.93486
3521.55865	0.94267
3519.63008	0.94813
3517.70152	0.95540
3515.77295	0.96577
3513.84439	0.97668
3511.91583	0.98724
3509.98726	0.99834
3508.05870	1.00824
3506.13013	1.01699
3504.20157	1.02831
3502.27300	1.04144
3500.34444	1.05320
3498.41587	1.06381
3496.48731	1.07281
3494.55875	1.07993
3492.63018	1.08545
3490.70162	1.09213
3488.77305	1.10537
3486.84449	1.11991
3484.91592	1.12460
3482.98736	1.12526
3481.05879	1.13132
3479.13023	1.13868
3477.20167	1.14368
3475.27310	1.14827
3473.34454	1.15323
3471.41597	1.15794
3469.48741	1.16360
3467.55884	1.16998
3465.63028	1.17415
3463.70171	1.17869
3461.77315	1.18692
3459.84459	1.19371
3457.91602	1.19570
3455.98746	1.19894
3454.05889	1.20490
3452.13033	1.20808
3450.20176	1.20872
3448.27320	1.21108
3446.34464	1.21718
3444.41607	1.22450
3442.48751	1.22912
3440.55894	1.23121
3438.63038	1.23398
3436.70181	1.23736
3434.77325	1.23786
3432.84468	1.23727
3430.91612	1.23816
3428.98756	1.23860
3427.05899	1.24041
3425.13043	1.24793
3423.20186	1.25954
3421.27330	1.26671
3419.34473	1.26339
3417.41617	1.25526
3415.48760	1.25288
3413.55904	1.25978
3411.63048	1.26859
3409.70191	1.27052
3407.77335	1.26485
3405.84478	1.25988
3403.91622	1.26465
3401.98765	1.27517
3400.05909	1.28001
3398.13052	1.27882
3396.20196	1.28023
3394.27340	1.28792
3392.34483	1.29504
3390.41627	1.29389
3388.48770	1.28884
3386.55914	1.28569
3384.63057	1.28212
3382.70201	1.27879
3380.77344	1.28121
3378.84488	1.28931
3376.91632	1.29847
3374.98775	1.30502
3373.05919	1.30793
3371.13062	1.30779
3369.20206	1.30413
3367.27349	1.29970
3365.34493	1.30130
3363.41636	1.31122
3361.48780	1.32388
3359.55924	1.33094
3357.63067	1.33049
3355.70211	1.32568
3353.77354	1.31922
3351.84498	1.31701
3349.91641	1.32087
3347.98785	1.32468
3346.05928	1.33025
3344.13072	1.34437
3342.20216	1.36032
3340.27359	1.36461
3338.34503	1.35916
3336.41646	1.35557
3334.48790	1.35759
3332.55933	1.36548
3330.63077	1.37625
3328.70220	1.38086
3326.77364	1.37965
3324.84508	1.38269
3322.91651	1.39168
3320.98795	1.39919
3319.05938	1.40120
3317.13082	1.39888
3315.20225	1.39823
3313.27369	1.40497
3311.34513	1.41240
3309.41656	1.41278
3307.48800	1.41015
3305.55943	1.41125
3303.63087	1.41752
3301.70230	1.42321
3299.77374	1.42523
3297.84517	1.42710
3295.91661	1.42962
3293.98805	1.43327
3292.05948	1.43753
3290.13092	1.43589
3288.20235	1.42995
3286.27379	1.43011
3284.34522	1.43413
3282.41666	1.43201
3280.48809	1.42600
3278.55953	1.42313
3276.63097	1.42075
3274.70240	1.41641
3272.77384	1.41758
3270.84527	1.42356
3268.91671	1.42101
3266.98814	1.40848
3265.05958	1.39769
3263.13101	1.39206
3261.20245	1.38545
3259.27389	1.37825
3257.34532	1.37616
3255.41676	1.37406
3253.48819	1.36520
3251.55963	1.35395
3249.63106	1.34355
3247.70250	1.33308
3245.77393	1.32188
3243.84537	1.31108
3241.91681	1.30353
3239.98824	1.29737
3238.05968	1.28771
3236.13111	1.27638
3234.20255	1.27114
3232.27398	1.27313
3230.34542	1.27468
3228.41685	1.26983
3226.48829	1.26026
3224.55973	1.25119
3222.63116	1.24456
3220.70260	1.24043
3218.77403	1.23674
3216.84547	1.22960
3214.91690	1.22205
3212.98834	1.21901
3211.05977	1.21978
3209.13121	1.22111
3207.20265	1.21859
3205.27408	1.21201
3203.34552	1.20746
3201.41695	1.20735
3199.48839	1.20582
3197.55982	1.19925
3195.63126	1.19120
3193.70269	1.18285
3191.77413	1.17402
3189.84557	1.16787
3187.91700	1.16491
3185.98844	1.16191
3184.05987	1.15672
3182.13131	1.14947
3180.20274	1.14283
3178.27418	1.14004
3176.34562	1.13913
3174.41705	1.13605
3172.48849	1.13195
3170.55992	1.12777
3168.63136	1.12097
3166.70279	1.11259
3164.77423	1.10620
3162.84566	1.10262
3160.91710	1.10044
3158.98854	1.09734
3157.05997	1.09224
3155.13141	1.08709
3153.20284	1.08368
3151.27428	1.08100
3149.34571	1.07866
3147.41715	1.07735
3145.48858	1.07581
3143.56002	1.07283
3141.63146	1.06840
3139.70289	1.06244
3137.77433	1.05685
3135.84576	1.05366
3133.91720	1.05083
3131.98863	1.04744
3130.06007	1.04778
3128.13150	1.05145
3126.20294	1.05105
3124.27438	1.04495
3122.34581	1.03856
3120.41725	1.03594
3118.48868	1.03751
3116.56012	1.04087
3114.63155	1.04359
3112.70299	1.04457
3110.77442	1.04312
3108.84586	1.03958
3106.91730	1.03530
3104.98873	1.03203
3103.06017	1.03121
3101.13160	1.03281
3099.20304	1.03429
3097.27447	1.03274
3095.34591	1.02936
3093.41734	1.02790
3091.48878	1.02894
3089.56022	1.02914
3087.63165	1.02682
3085.70309	1.02472
3083.77452	1.02334
3081.84596	1.01966
3079.91739	1.01519
3077.98883	1.01312
3076.06026	1.01164
3074.13170	1.00922
3072.20314	1.00652
3070.27457	1.00286
3068.34601	0.99840
3066.41744	0.99483
3064.48888	0.99267
3062.56031	0.99058
3060.63175	0.98697
3058.70318	0.98177
3056.77462	0.97613
3054.84606	0.97059
3052.91749	0.96560
3050.98893	0.96228
3049.06036	0.95904
3047.13180	0.95353
3045.20323	0.94756
3043.27467	0.94238
3041.34610	0.93617
3039.41754	0.92924
3037.48898	0.92365
3035.56041	0.92010
3033.63185	0.91771
3031.70328	0.91450
3029.77472	0.91019
3027.84615	0.90641
3025.91759	0.90302
3023.98903	0.89904
3022.06046	0.89484
3020.13190	0.89147
3018.20333	0.88932
3016.27477	0.88761
3014.34620	0.88565
3012.41764	0.88341
3010.48907	0.88056
3008.56051	0.87652
3006.63195	0.87241
3004.70338	0.87038
3002.77482	0.87013
3000.84625	0.86923
2998.91769	0.86734
2996.98912	0.86651
2995.06056	0.86761
2993.13199	0.87079
2991.20343	0.87661
2989.27487	0.88404
2987.34630	0.89212
2985.41774	0.90039
2983.48917	0.90763
2981.56061	0.91407
2979.63204	0.92076
2977.70348	0.92898
2975.77491	0.94006
2973.84635	0.95197
2971.91779	0.96135
2969.98922	0.96872
2968.06066	0.97692
2966.13209	0.98650
2964.20353	0.99478
2962.27496	1.00021
2960.34640	1.00409
2958.41783	1.00546
2956.48927	1.00105
2954.56071	0.99210
2952.63214	0.98399
2950.70358	0.97929
2948.77501	0.97760
2946.84645	0.97916
2944.91788	0.98410
2942.98932	0.99168
2941.06075	1.00105
2939.13219	1.01202
2937.20363	1.02525
2935.27506	1.03880
2933.34650	1.04921
2931.41793	1.05706
2929.48937	1.06507
2927.56080	1.07273
2925.63224	1.07691
2923.70367	1.07770
2921.77511	1.07838
2919.84655	1.07847
2917.91798	1.07173
2915.98942	1.05290
2914.06085	1.02583
2912.13229	0.99948
2910.20372	0.97861
2908.27516	0.96285
2906.34659	0.94979
2904.41803	0.93777
2902.48947	0.92714
2900.56090	0.91895
2898.63234	0.91356
2896.70377	0.90971
2894.77521	0.90551
2892.84664	0.90078
2890.91808	0.89655
2888.98952	0.89324
2887.06095	0.88989
2885.13239	0.88608
2883.20382	0.88370
2881.27526	0.88400
2879.34669	0.88549
2877.41813	0.88650
2875.48956	0.88611
2873.56100	0.88367
2871.63244	0.87924
2869.70387	0.87323
2867.77531	0.86600
2865.84674	0.85858
2863.91818	0.85370
2861.98961	0.85354
2860.06105	0.85581
2858.13248	0.85801
2856.20392	0.86226
2854.27536	0.86989
2852.34679	0.87737
2850.41823	0.87703
2848.48966	0.86171
2846.56110	0.83453
2844.63253	0.80640
2842.70397	0.78360
2840.77540	0.76615
2838.84684	0.75302
2836.91828	0.74305
2834.98971	0.73465
2833.06115	0.72731
2831.13258	0.72117
2829.20402	0.71617
2827.27545	0.71208
2825.34689	0.70777
2823.41832	0.70291
2821.48976	0.69840
2819.56120	0.69432
2817.63263	0.69045
2815.70407	0.68653
2813.77550	0.68211
2811.84694	0.67805
2809.91837	0.67521
2807.98981	0.67299
2806.06124	0.67096
2804.13268	0.66864
2802.20412	0.66519
2800.27555	0.66098
2798.34699	0.65667
2796.41842	0.65272
2794.48986	0.64972
2792.56129	0.64697
2790.63273	0.64397
2788.70416	0.64079
2786.77560	0.63713
2784.84704	0.63350
2782.91847	0.63019
2780.98991	0.62699
2779.06134	0.62439
2777.13278	0.62234
2775.20421	0.62016
2773.27565	0.61798
2771.34708	0.61608
2769.41852	0.61417
2767.48996	0.61214
2765.56139	0.60989
2763.63283	0.60707
2761.70426	0.60410
2759.77570	0.60183
2757.84713	0.60039
2755.91857	0.59889
2753.99001	0.59672
2752.06144	0.59442
2750.13288	0.59232
2748.20431	0.59041
2746.27575	0.58886
2744.34718	0.58734
2742.41862	0.58577
2740.49005	0.58462
2738.56149	0.58347
2736.63293	0.58158
2734.70436	0.57930
2732.77580	0.57685
2730.84723	0.57450
2728.91867	0.57284
2726.99010	0.57142
2725.06154	0.56971
2723.13297	0.56793
2721.20441	0.56617
2719.27585	0.56437
2717.34728	0.56242
2715.41872	0.55985
2713.49015	0.55638
2711.56159	0.55288
2709.63302	0.55041
2707.70446	0.54876
2705.77589	0.54741
2703.84733	0.54625
2701.91877	0.54527
2699.99020	0.54396
2698.06164	0.54193
2696.13307	0.53972
2694.20451	0.53830
2692.27594	0.53796
2690.34738	0.53759
2688.41881	0.53639
2686.49025	0.53503
2684.56169	0.53365
2682.63312	0.53178
2680.70456	0.52963
2678.77599	0.52747
2676.84743	0.52516
2674.91886	0.52275
2672.99030	0.52095
2671.06173	0.51962
2669.13317	0.51801
2667.20461	0.51622
2665.27604	0.51434
2663.34748	0.51225
2661.41891	0.51041
2659.49035	0.50889
2657.56178	0.50721
2655.63322	0.50541
2653.70465	0.50366
2651.77609	0.50183
2649.84753	0.50012
2647.91896	0.49887
2645.99040	0.49806
2644.06183	0.49724
2642.13327	0.49615
2640.20470	0.49509
2638.27614	0.49412
2636.34757	0.49286
2634.41901	0.49136
2632.49045	0.48996
2630.56188	0.48872
2628.63332	0.48749
2626.70475	0.48626
2624.77619	0.48492
2622.84762	0.48337
2620.91906	0.48183
2618.99049	0.48029
2617.06193	0.47874
2615.13337	0.47773
2613.20480	0.47753
2611.27624	0.47735
2609.34767	0.47619
2607.41911	0.47408
2605.49054	0.47204
2603.56198	0.47077
2601.63342	0.46976
2599.70485	0.46820
2597.77629	0.46622
2595.84772	0.46425
2593.91916	0.46246
2591.99059	0.46089
2590.06203	0.45937
2588.13346	0.45763
2586.20490	0.45572
2584.27634	0.45420
2582.34777	0.45314
2580.41921	0.45186
2578.49064	0.45039
2576.56208	0.44939
2574.63351	0.44869
2572.70495	0.44795
2570.77638	0.44750
2568.84782	0.44743
2566.91926	0.44737
2564.99069	0.44738
2563.06213	0.44733
2561.13356	0.44680
2559.20500	0.44578
2557.27643	0.44453
2555.34787	0.44306
2553.41930	0.44139
2551.49074	0.43973
2549.56218	0.43820
2547.63361	0.43653
2545.70505	0.43471
2543.77648	0.43318
2541.84792	0.43186
2539.91935	0.43021
2537.99079	0.42829
2536.06222	0.42676
2534.13366	0.42586
2532.20510	0.42494
2530.27653	0.42362
2528.34797	0.42231
2526.41940	0.42101
2524.49084	0.41974
2522.56227	0.41887
2520.63371	0.41815
2518.70514	0.41730
2516.77658	0.41648
2514.84802	0.41575
2512.91945	0.41486
2510.99089	0.41394
2509.06232	0.41314
2507.13376	0.41218
2505.20519	0.41126
2503.27663	0.41077
2501.34806	0.41034
2499.41950	0.40972
2497.49094	0.40900
2495.56237	0.40784
2493.63381	0.40610
2491.70524	0.40447
2489.77668	0.40338
2487.84811	0.40256
2485.91955	0.40170
2483.99098	0.40075
2482.06242	0.39978
2480.13386	0.39893
2478.20529	0.39816
2476.27673	0.39715
2474.34816	0.39594
2472.41960	0.39505
2470.49103	0.39450
2468.56247	0.39400
2466.63391	0.39339
2464.70534	0.39233
2462.77678	0.39083
2460.84821	0.38954
2458.91965	0.38872
2456.99108	0.38790
2455.06252	0.38677
2453.13395	0.38552
2451.20539	0.38415
2449.27683	0.38269
2447.34826	0.38151
2445.41970	0.38061
2443.49113	0.37966
2441.56257	0.37861
2439.63400	0.37765
2437.70544	0.37690
2435.77687	0.37640
2433.84831	0.37592
2431.91975	0.37499
2429.99118	0.37394
2428.06262	0.37328
2426.13405	0.37275
2424.20549	0.37190
2422.27692	0.37058
2420.34836	0.36924
2418.41979	0.36830
2416.49123	0.36739
2414.56267	0.36586
2412.63410	0.36384
2410.70554	0.36215
2408.77697	0.36101
2406.84841	0.35991
2404.91984	0.35869
2402.99128	0.35752
2401.06271	0.35635
2399.13415	0.35505
2397.20559	0.35357
2395.27702	0.35225
2393.34846	0.35155
2391.41989	0.35134
2389.49133	0.35120
2387.56276	0.35098
2385.63420	0.35069
2383.70563	0.35011
2381.77707	0.34907
2379.84851	0.34800
2377.91994	0.34721
2375.99138	0.34608
2374.06281	0.34437
2372.13425	0.34306
2370.20568	0.34262
2368.27712	0.34180
2366.34855	0.33939
2364.41999	0.33619
2362.49143	0.33501
2360.56286	0.33652
2358.63430	0.33715
2356.70573	0.33569
2354.77717	0.33528
2352.84860	0.33703
2350.92004	0.33841
2348.99147	0.33823
2347.06291	0.33694
2345.13435	0.33528
2343.20578	0.33421
2341.27722	0.33374
2339.34865	0.33370
2337.42009	0.33393
2335.49152	0.33341
2333.56296	0.33196
2331.63440	0.32999
2329.70583	0.32785
2327.77727	0.32665
2325.84870	0.32658
2323.92014	0.32674
2321.99157	0.32696
2320.06301	0.32691
2318.13444	0.32618
2316.20588	0.32571
2314.27732	0.32594
2312.34875	0.32601
2310.42019	0.32551
2308.49162	0.32502
2306.56306	0.32495
2304.63449	0.32502
2302.70593	0.32491
2300.77736	0.32467
2298.84880	0.32445
2296.92024	0.32413
2294.99167	0.32358
2293.06311	0.32285
2291.13454	0.32196
2289.20598	0.32100
2287.27741	0.32028
2285.34885	0.31980
2283.42028	0.31906
2281.49172	0.31773
2279.56316	0.31614
2277.63459	0.31472
2275.70603	0.31363
2273.77746	0.31261
2271.84890	0.31146
2269.92033	0.31034
2267.99177	0.30931
2266.06320	0.30819
2264.13464	0.30703
2262.20608	0.30608
2260.27751	0.30526
2258.34895	0.30433
2256.42038	0.30339
2254.49182	0.30247
2252.56325	0.30129
2250.63469	0.29982
2248.70612	0.29841
2246.77756	0.29712
2244.84900	0.29597
2242.92043	0.29515
2240.99187	0.29462
2239.06330	0.29422
2237.13474	0.29381
2235.20617	0.29334
2233.27761	0.29310
2231.34904	0.29318
2229.42048	0.29329
2227.49192	0.29336
2225.56335	0.29351
2223.63479	0.29370
2221.70622	0.29398
2219.77766	0.29410
2217.84909	0.29381
2215.92053	0.29341
2213.99196	0.29306
2212.06340	0.29250
2210.13484	0.29174
2208.20627	0.29091
2206.27771	0.29015
2204.34914	0.28953
2202.42058	0.28873
2200.49201	0.28744
2198.56345	0.28594
2196.63488	0.28451
2194.70632	0.28331
2192.77776	0.28251
2190.84919	0.28177
2188.92063	0.28083
2186.99206	0.28001
2185.06350	0.27925
2183.13493	0.27838
2181.20637	0.27786
2179.27781	0.27785
2177.34924	0.27798
2175.42068	0.27800
2173.49211	0.27762
2171.56355	0.27693
2169.63498	0.27652
2167.70642	0.27645
2165.77785	0.27623
2163.84929	0.27575
2161.92073	0.27527
2159.99216	0.27489
2158.06360	0.27445
2156.13503	0.27391
2154.20647	0.27327
2152.27790	0.27270
2150.34934	0.27222
2148.42077	0.27166
2146.49221	0.27105
2144.56365	0.27047
2142.63508	0.26984
2140.70652	0.26917
2138.77795	0.26862
2136.84939	0.26823
2134.92082	0.26784
2132.99226	0.26722
2131.06369	0.26637
2129.13513	0.26552
2127.20657	0.26496
2125.27800	0.26456
2123.34944	0.26403
2121.42087	0.26353
2119.49231	0.26324
2117.56374	0.26279
2115.63518	0.26210
2113.70661	0.26148
2111.77805	0.26100
2109.84949	0.26052
2107.92092	0.26021
2105.99236	0.26009
2104.06379	0.25997
2102.13523	0.25993
2100.20666	0.26006
2098.27810	0.26015
2096.34953	0.26012
2094.42097	0.26011
2092.49241	0.26014
2090.56384	0.26013
2088.63528	0.25998
2086.70671	0.25980
2084.77815	0.25977
2082.84958	0.25974
2080.92102	0.25956
2078.99245	0.25928
2077.06389	0.25889
2075.13533	0.25853
2073.20676	0.25838
2071.27820	0.25831
2069.34963	0.25806
2067.42107	0.25760
2065.49250	0.25705
2063.56394	0.25655
2061.63537	0.25606
2059.70681	0.25551
2057.77825	0.25500
2055.84968	0.25445
2053.92112	0.25373
2051.99255	0.25287
2050.06399	0.25202
2048.13542	0.25113
2046.20686	0.24993
2044.27830	0.24856
2042.34973	0.24738
2040.42117	0.24631
2038.49260	0.24522
2036.56404	0.24415
2034.63547	0.24310
2032.70691	0.24211
2030.77834	0.24113
2028.84978	0.24011
2026.92122	0.23930
2024.99265	0.23868
2023.06409	0.23809
2021.13552	0.23751
2019.20696	0.23691
2017.27839	0.23635
2015.34983	0.23599
2013.42126	0.23578
2011.49270	0.23555
2009.56414	0.23524
2007.63557	0.23489
2005.70701	0.23449
2003.77844	0.23406
2001.84988	0.23370
1999.92131	0.23355
1997.99275	0.23352
1996.06418	0.23344
1994.13562	0.23343
1992.20706	0.23356
1990.27849	0.23350
1988.34993	0.23319
1986.42136	0.23304
1984.49280	0.23308
1982.56423	0.23301
1980.63567	0.23262
1978.70710	0.23206
1976.77854	0.23150
1974.84998	0.23103
1972.92141	0.23070
1970.99285	0.23031
1969.06428	0.22967
1967.13572	0.22888
1965.20715	0.22803
1963.27859	0.22713
1961.35002	0.22618
1959.42146	0.22517
1957.49290	0.22418
1955.56433	0.22328
1953.63577	0.22239
1951.70720	0.22148
1949.77864	0.22062
1947.85007	0.21995
1945.92151	0.21954
1943.99294	0.21923
1942.06438	0.21885
1940.13582	0.21830
1938.20725	0.21782
1936.27869	0.21766
1934.35012	0.21773
1932.42156	0.21764
1930.49299	0.21735
1928.56443	0.21709
1926.63586	0.21689
1924.70730	0.21674
1922.77874	0.21669
1920.85017	0.21650
1918.92161	0.21606
1916.99304	0.21540
1915.06448	0.21462
1913.13591	0.21397
1911.20735	0.21367
1909.27878	0.21359
1907.35022	0.21324
1905.42166	0.21269
1903.49309	0.21217
1901.56453	0.21164
1899.63596	0.21110
1897.70740	0.21050
1895.77883	0.21005
1893.85027	0.20993
1891.92171	0.20979
1889.99314	0.20955
1888.06458	0.20923
1886.13601	0.20876
1884.20745	0.20828
1882.27888	0.20793
1880.35032	0.20767
1878.42175	0.20732
1876.49319	0.20683
1874.56463	0.20632
1872.63606	0.20597
1870.70750	0.20593
1868.77893	0.20623
1866.85037	0.20645
1864.92180	0.20639
1862.99324	0.20640
1861.06467	0.20664
1859.13611	0.20695
1857.20755	0.20713
1855.27898	0.20712
1853.35042	0.20699
1851.42185	0.20695
1849.49329	0.20705
1847.56472	0.20700
1845.63616	0.20683
1843.70759	0.20668
1841.77903	0.20619
1839.85047	0.20532
1837.92190	0.20440
1835.99334	0.20360
1834.06477	0.20282
1832.13621	0.20210
1830.20764	0.20156
1828.27908	0.20104
1826.35051	0.20052
1824.42195	0.20012
1822.49339	0.19970
1820.56482	0.19934
1818.63626	0.19929
1816.70769	0.19936
1814.77913	0.19952
1812.85056	0.19999
1810.92200	0.20085
1808.99343	0.20163
1807.06487	0.20195
1805.13631	0.20214
1803.20774	0.20264
1801.27918	0.20396
1799.35061	0.20582
1797.42205	0.20722
1795.49348	0.20806
1793.56492	0.20924
1791.63635	0.21141
1789.70779	0.21280
1787.77923	0.21333
1785.85066	0.21405
1783.92210	0.21502
1781.99353	0.21611
1780.06497	0.21737
1778.13640	0.21831
1776.20784	0.21871
1774.27927	0.21937
1772.35071	0.22084
1770.42215	0.22220
1768.49358	0.22323
1766.56502	0.22424
1764.63645	0.22518
1762.70789	0.22683
1760.77932	0.22951
1758.85076	0.23225
1756.92220	0.23578
1754.99363	0.23977
1753.06507	0.24374
1751.13650	0.25002
1749.20794	0.25932
1747.27937	0.26793
1745.35081	0.27494
1743.42224	0.28158
1741.49368	0.28848
1739.56512	0.29558
1737.63655	0.30077
1735.70799	0.30455
1733.77942	0.31050
1731.85086	0.31617
1729.92229	0.32047
1727.99373	0.32528
1726.06516	0.33055
1724.13660	0.33710
1722.20804	0.34380
1720.27947	0.34990
1718.35091	0.35986
1716.42234	0.37769
1714.49378	0.39300
1712.56521	0.40511
1710.63665	0.41843
1708.70808	0.43398
1706.77952	0.45632
1704.85096	0.48612
1702.92239	0.51385
1700.99383	0.55282
1699.06526	0.61463
1697.13670	0.67388
1695.20813	0.73428
1693.27957	0.78101
1691.35100	0.81886
1689.42244	0.86531
1687.49388	0.90988
1685.56531	0.95554
1683.63675	1.02661
1681.70818	1.07955
1679.77962	1.10961
1677.85105	1.13692
1675.92249	1.16953
1673.99392	1.20500
1672.06536	1.23221
1670.13680	1.26192
1668.20823	1.29547
1666.27967	1.31264
1664.35110	1.32482
1662.42254	1.34389
1660.49397	1.36190
1658.56541	1.37213
1656.63684	1.37697
1654.70828	1.38117
1652.77972	1.38006
1650.85115	1.37375
1648.92259	1.37014
1646.99402	1.36580
1645.06546	1.35911
1643.13689	1.35257
1641.20833	1.34881
1639.27976	1.34549
1637.35120	1.34109
1635.42264	1.33469
1633.49407	1.32785
1631.56551	1.32298
1629.63694	1.31638
1627.70838	1.30557
1625.77981	1.29036
1623.85125	1.27054
1621.92269	1.24894
1619.99412	1.23062
1618.06556	1.20681
1616.13699	1.17041
1614.20843	1.14102
1612.27986	1.11681
1610.35130	1.08879
1608.42273	1.05968
1606.49417	1.03592
1604.56561	1.01733
1602.63704	1.00111
1600.70848	0.98895
1598.77991	0.98133
1596.85135	0.97616
1594.92278	0.97247
1592.99422	0.97102
1591.06565	0.97265
1589.13709	0.97692
1587.20853	0.98334
1585.27996	0.99174
1583.35140	1.00266
1581.42283	1.01545
1579.49427	1.02811
1577.56570	1.04371
1575.63714	1.06520
1573.70857	1.07962
1571.78001	1.08958
1569.85145	1.10597
1567.92288	1.12490
1565.99432	1.13895
1564.06575	1.15048
1562.13719	1.15831
1560.20862	1.17036
1558.28006	1.19947
1556.35149	1.21164
1554.42293	1.21617
1552.49437	1.22055
1550.56580	1.22244
1548.63724	1.22232
1546.70867	1.22205
1544.78011	1.22117
1542.85154	1.21727
1540.92298	1.21058
1538.99441	1.20512
1537.06585	1.20138
1535.13729	1.19700
1533.20872	1.19082
1531.28016	1.18212
1529.35159	1.17329
1527.42303	1.16486
1525.49446	1.15707
1523.56590	1.15054
1521.63733	1.14319
1519.70877	1.13770
1517.78021	1.13004
1515.85164	1.11460
1513.92308	1.09610
1511.99451	1.07707
1510.06595	1.05823
1508.13738	1.03046
1506.20882	0.98263
1504.28025	0.95515
1502.35169	0.93720
1500.42313	0.91732
1498.49456	0.89303
1496.56600	0.86546
1494.63743	0.84410
1492.70887	0.82903
1490.78030	0.81219
1488.85174	0.79131
1486.92317	0.77564
1484.99461	0.76633
1483.06605	0.76101
1481.13748	0.75871
1479.20892	0.75912
1477.28035	0.76297
1475.35179	0.77209
1473.42322	0.79074
1471.49466	0.81323
1469.56610	0.82633
1467.63753	0.83508
1465.70897	0.84527
1463.78040	0.85529
1461.85184	0.86082
1459.92327	0.86427
1457.99471	0.87215
1456.06614	0.88539
1454.13758	0.89138
1452.20902	0.89257
1450.28045	0.89226
1448.35189	0.89136
1446.42332	0.88928
1444.49476	0.88567
1442.56619	0.88084
1440.63763	0.87543
1438.70906	0.86911
1436.78050	0.85963
1434.85194	0.84825
1432.92337	0.83809
1430.99481	0.82758
1429.06624	0.81741
1427.13768	0.81058
1425.20911	0.80678
1423.28055	0.80522
1421.35198	0.80563
1419.42342	0.80800
1417.49486	0.81099
1415.56629	0.81264
1413.63773	0.81397
1411.70916	0.81556
1409.78060	0.81739
1407.85203	0.81967
1405.92347	0.82357
1403.99490	0.82924
1402.06634	0.83412
1400.13778	0.83787
1398.20921	0.84119
1396.28065	0.84356
1394.35208	0.84489
1392.42352	0.84566
1390.49495	0.84702
1388.56639	0.85140
1386.63782	0.85987
1384.70926	0.86869
1382.78070	0.87595
1380.85213	0.88064
1378.92357	0.88068
1376.99500	0.87554
1375.06644	0.86445
1373.13787	0.84889
1371.20931	0.83375
1369.28074	0.81778
1367.35218	0.80033
1365.42362	0.78442
1363.49505	0.76910
1361.56649	0.75529
1359.63792	0.74673
1357.70936	0.74170
1355.78079	0.73816
1353.85223	0.73561
1351.92366	0.73332
1349.99510	0.73097
1348.06654	0.72884
1346.13797	0.72678
1344.20941	0.72491
1342.28084	0.72372
1340.35228	0.72359
1338.42371	0.72462
1336.49515	0.72684
1334.56659	0.73100
1332.63802	0.73738
1330.70946	0.74478
1328.78089	0.75127
1326.85233	0.75592
1324.92376	0.75922
1322.99520	0.76233
1321.06663	0.76606
1319.13807	0.77020
1317.20951	0.77389
1315.28094	0.77641
1313.35238	0.77751
1311.42381	0.77761
1309.49525	0.77723
1307.56668	0.77586
1305.63812	0.77288
1303.70955	0.76880
1301.78099	0.76393
1299.85243	0.75769
1297.92386	0.74978
1295.99530	0.74091
1294.06673	0.73242
1292.13817	0.72549
1290.20960	0.72045
1288.28104	0.71702
1286.35247	0.71486
1284.42391	0.71335
1282.49535	0.71210
1280.56678	0.71148
1278.63822	0.71209
1276.70965	0.71432
1274.78109	0.71815
1272.85252	0.72312
1270.92396	0.72857
1268.99539	0.73410
1267.06683	0.73967
1265.13827	0.74488
1263.20970	0.74892
1261.28114	0.75125
1259.35257	0.75239
1257.42401	0.75342
1255.49544	0.75474
1253.56688	0.75607
1251.63831	0.75741
1249.70975	0.75868
1247.78119	0.75964
1245.85262	0.76040
1243.92406	0.76083
1241.99549	0.76059
1240.06693	0.75963
1238.13836	0.75804
1236.20980	0.75565
1234.28123	0.75200
1232.35267	0.74712
1230.42411	0.74120
1228.49554	0.73412
1226.56698	0.72562
1224.63841	0.71590
1222.70985	0.70598
1220.78128	0.69659
1218.85272	0.68775
1216.92415	0.67988
1214.99559	0.67421
1213.06703	0.67112
1211.13846	0.66988
1209.20990	0.66973
1207.28133	0.66907
1205.35277	0.66565
1203.42420	0.65904
1201.49564	0.65071
1199.56708	0.64164
1197.63851	0.63203
1195.70995	0.62246
1193.78138	0.61391
1191.85282	0.60723
1189.92425	0.60239
1187.99569	0.59895
1186.06712	0.59693
1184.13856	0.59644
1182.21000	0.59798
1180.28143	0.60239
1178.35287	0.60987
1176.42430	0.61994
1174.49574	0.63192
1172.56717	0.64490
1170.63861	0.65859
1168.71004	0.67375
1166.78148	0.69066
1164.85292	0.70811
1162.92435	0.72425
1160.99579	0.73706
1159.06722	0.74427
1157.13866	0.74473
1155.21009	0.73876
1153.28153	0.72734
1151.35296	0.71218
1149.42440	0.69531
1147.49584	0.67865
1145.56727	0.66387
1143.63871	0.65234
1141.71014	0.64506
1139.78158	0.64241
1137.85301	0.64450
1135.92445	0.65050
1133.99588	0.65918
1132.06732	0.67092
1130.13876	0.68649
1128.21019	0.70414
1126.28163	0.72124
1124.35306	0.73711
1122.42450	0.75160
1120.49593	0.76342
1118.56737	0.77153
1116.63880	0.77578
1114.71024	0.77616
1112.78168	0.77298
1110.85311	0.76747
1108.92455	0.76092
1106.99598	0.75417
1105.06742	0.74806
1103.13885	0.74327
1101.21029	0.74020
1099.28172	0.74001
1097.35316	0.74415
1095.42460	0.75331
1093.49603	0.76720
1091.56747	0.78506
1089.63890	0.80723
1087.71034	0.83420
1085.78177	0.86336
1083.85321	0.89017
1081.92464	0.91178
1079.99608	0.92801
1078.06752	0.93812
1076.13895	0.93912
1074.21039	0.93040
1072.28182	0.91578
1070.35326	0.89897
1068.42469	0.88119
1066.49613	0.86432
1064.56756	0.85058
1062.63900	0.83891
1060.71044	0.82803
1058.78187	0.81896
1056.85331	0.81139
1054.92474	0.80430
1052.99618	0.79871
1051.06761	0.79602
1049.13905	0.79681
1047.21049	0.80110
1045.28192	0.80858
1043.35336	0.81869
1041.42479	0.82973
1039.49623	0.83931
1037.56766	0.84620
1035.63910	0.84965
1033.71053	0.84923
1031.78197	0.84560
1029.85341	0.83918
1027.92484	0.82903
1025.99628	0.81464
1024.06771	0.79743
1022.13915	0.77887
1020.21058	0.75965
1018.28202	0.74039
1016.35345	0.72065
1014.42489	0.69941
1012.49633	0.67691
1010.56776	0.65388
1008.63920	0.63098
1006.71063	0.60938
1004.78207	0.59066
1002.85350	0.57604
1000.92494	0.56585
998.99637	0.55981
997.06781	0.55699
995.13925	0.55577
993.21068	0.55489
991.28212	0.55329
989.35355	0.54960
987.42499	0.54275
985.49642	0.53309
983.56786	0.52216
981.63929	0.51061
979.71073	0.49851
977.78217	0.48600
975.85360	0.47266
973.92504	0.45827
971.99647	0.44327
970.06791	0.42861
968.13934	0.41575
966.21078	0.40626
964.28221	0.40124
962.35365	0.40173
960.42509	0.40880
958.49652	0.42176
956.56796	0.43671
954.63939	0.44874
952.71083	0.45558
950.78226	0.45783
948.85370	0.45727
946.92513	0.45557
944.99657	0.45359
943.06801	0.45099
941.13944	0.44706
939.21088	0.44186
937.28231	0.43569
935.35375	0.42841
933.42518	0.42058
931.49662	0.41321
929.56805	0.40679
927.63949	0.40165
925.71093	0.39862
923.78236	0.39832
921.85380	0.40019
919.92523	0.40288
917.99667	0.40583
916.06810	0.40945
914.13954	0.41394
912.21098	0.41895
910.28241	0.42403
908.35385	0.42899
906.42528	0.43356
904.49672	0.43685
902.56815	0.43765
900.63959	0.43527
898.71102	0.42950
896.78246	0.42052
894.85390	0.40900
892.92533	0.39590
890.99677	0.38240
889.06820	0.36962
887.13964	0.35835
885.21107	0.34933
883.28251	0.34334
881.35394	0.34062
879.42538	0.34091
877.49682	0.34398
875.56825	0.34939
873.63969	0.35683
871.71112	0.36642
869.78256	0.37798
867.85399	0.39054
865.92543	0.40287
863.99686	0.41403
862.06830	0.42284
860.13974	0.42860
858.21117	0.43209
856.28261	0.43368
854.35404	0.43258
852.42548	0.42882
850.49691	0.42351
848.56835	0.41717
846.63978	0.41015
844.71122	0.40389
842.78266	0.39960
840.85409	0.39737
838.92553	0.39738
836.99696	0.40001
835.06840	0.40468
833.13983	0.41083
831.21127	0.41852
829.28270	0.42728
827.35414	0.43645
825.42558	0.44556
823.49701	0.45410
821.56845	0.46171
819.63988	0.46747
817.71132	0.47038
815.78275	0.47042
813.85419	0.46795
811.92562	0.46312
809.99706	0.45610
808.06850	0.44753
806.13993	0.43861
804.21137	0.43069
802.28280	0.42447
800.35424	0.42006
798.42567	0.41734
796.49711	0.41604
794.56854	0.41679
792.63998	0.42076
790.71142	0.42782
788.78285	0.43704
786.85429	0.44759
784.92572	0.45865
782.99716	0.46975
781.06859	0.48060
779.14003	0.49037
777.21147	0.49817
775.28290	0.50334
773.35434	0.50570
771.42577	0.50526
769.49721	0.50190
767.56864	0.49665
765.64008	0.49108
763.71151	0.48554
761.78295	0.47998
759.85439	0.47528
757.92582	0.47281
755.99726	0.47257
754.06869	0.47376
752.14013	0.47688
750.21156	0.48227
748.28300	0.48895
746.35443	0.49677
744.42587	0.50628
742.49731	0.51697
740.56874	0.52761
738.64018	0.53724
736.71161	0.54552
734.78305	0.55246
732.85448	0.55756
730.92592	0.56084
728.99735	0.56271
727.06879	0.56269
725.14023	0.56070
723.21166	0.55816
721.28310	0.55569
719.35453	0.55179
717.42597	0.54634
715.49740	0.54195
713.56884	0.53978
711.64027	0.53941
709.71171	0.54144
707.78315	0.54578
705.85458	0.55109
703.92602	0.55698
701.99745	0.56372
700.06889	0.57113
698.14032	0.57835
696.21176	0.58479
694.28319	0.59081
692.35463	0.59644
690.42607	0.60076
688.49750	0.60341
686.56894	0.60515
684.64037	0.60569
682.71181	0.60463
680.78324	0.60299
678.85468	0.60067
676.92611	0.59668
674.99755	0.59188
673.06899	0.58827
671.14042	0.58608
669.21186	0.58369
667.28329	0.58152
665.35473	0.58071
663.42616	0.58006
661.49760	0.57954
659.56903	0.57906
657.64047	0.57913
655.71191	0.58163
653.78334	0.58582
651.85478	0.58859
649.92621	0.59026
647.99765	0.59281
646.06908	0.59616
644.14052	0.60085
642.21195	0.60732
640.28339	0.61346
638.35483	0.61679
636.42626	0.61726
634.49770	0.61654
632.56913	0.61602
630.64057	0.61525
628.71200	0.61281
626.78344	0.60890
624.85488	0.60438
622.92631	0.59977
620.99775	0.59629
619.06918	0.59367
617.14062	0.58977
615.21205	0.58526
613.28349	0.58256
611.35492	0.58185
609.42636	0.58314
607.49780	0.58687
605.56923	0.59139
603.64067	0.59621
601.71210	0.60321
599.78354	0.61158
