3997.91406	0.22216
3995.98550	0.22252
3994.05693	0.22289
3992.12837	0.22278
3990.19980	0.22256
3988.27124	0.22210
3986.34268	0.22089
3984.41411	0.21956
3982.48555	0.21902
3980.55698	0.21944
3978.62842	0.21984
3976.69985	0.21897
3974.77129	0.21718
3972.84272	0.21573
3970.91416	0.21505
3968.98560	0.21528
3967.05703	0.21588
3965.12847	0.21582
3963.19990	0.21521
3961.27134	0.21462
3959.34277	0.21406
3957.41421	0.21370
3955.48564	0.21331
3953.55708	0.21255
3951.62852	0.21198
3949.69995	0.21257
3947.77139	0.21362
3945.84282	0.21356
3943.91426	0.21355
3941.98569	0.21388
3940.05713	0.21266
3938.12856	0.21104
3936.20000	0.21027
3934.27144	0.20974
3932.34287	0.21001
3930.41431	0.21068
3928.48574	0.20970
3926.55718	0.20840
3924.62861	0.20885
3922.70005	0.20953
3920.77148	0.20918
3918.84292	0.20891
3916.91436	0.20935
3914.98579	0.20943
3913.05723	0.20863
3911.12866	0.20748
3909.20010	0.20560
3907.27153	0.20337
3905.34297	0.20312
3903.41440	0.20565
3901.48584	0.20849
3899.55728	0.21024
3897.62871	0.20923
3895.70015	0.20615
3893.77158	0.20454
3891.84302	0.20602
3889.91445	0.20551
3887.98589	0.20223
3886.05733	0.20107
3884.12876	0.20166
3882.20020	0.20113
3880.27163	0.20148
3878.34307	0.20057
3876.41450	0.19780
3874.48594	0.19597
3872.55737	0.19575
3870.62881	0.19801
3868.70025	0.19947
3866.77168	0.19690
3864.84312	0.19566
3862.91455	0.19691
3860.98599	0.19617
3859.05742	0.19409
3857.12886	0.19223
3855.20029	0.19357
3853.27173	0.20097
3851.34317	0.20106
3849.41460	0.19567
3847.48604	0.19115
3845.55747	0.18867
3843.62891	0.18829
3841.70034	0.18865
3839.77178	0.19012
3837.84321	0.19275
3835.91465	0.19319
3833.98609	0.19342
3832.05752	0.19446
3830.12896	0.19351
3828.20039	0.19132
3826.27183	0.19000
3824.34326	0.18842
3822.41470	0.18842
3820.48613	0.19180
3818.55757	0.19201
3816.62901	0.19187
3814.70044	0.19255
3812.77188	0.19033
3810.84331	0.18687
3808.91475	0.18565
3806.98618	0.18825
3805.05762	0.18881
3803.12905	0.18767
3801.20049	0.19032
3799.27193	0.19100
3797.34336	0.18982
3795.41480	0.18991
3793.48623	0.18866
3791.55767	0.18635
3789.62910	0.18470
3787.70054	0.18387
3785.77197	0.18429
3783.84341	0.18492
3781.91485	0.18449
3779.98628	0.18515
3778.05772	0.18629
3776.12915	0.18500
3774.20059	0.18273
3772.27202	0.18205
3770.34346	0.18385
3768.41489	0.18456
3766.48633	0.18316
3764.55777	0.18204
3762.62920	0.18065
3760.70064	0.18007
3758.77207	0.18166
3756.84351	0.18178
3754.91494	0.17901
3752.98638	0.17616
3751.05781	0.17841
3749.12925	0.18101
3747.20069	0.17861
3745.27212	0.17847
3743.34356	0.18095
3741.41499	0.17961
3739.48643	0.17697
3737.55786	0.17701
3735.62930	0.18054
3733.70074	0.18282
3731.77217	0.18180
3729.84361	0.17913
3727.91504	0.17727
3725.98648	0.17850
3724.05791	0.18074
3722.12935	0.18102
3720.20078	0.18034
3718.27222	0.17913
3716.34366	0.17683
3714.41509	0.17476
3712.48653	0.17681
3710.55796	0.18190
3708.62940	0.18196
3706.70083	0.17975
3704.77227	0.17834
3702.84370	0.17899
3700.91514	0.18050
3698.98658	0.17972
3697.05801	0.17822
3695.12945	0.17752
3693.20088	0.17716
3691.27232	0.17889
3689.34375	0.18539
3687.41519	0.18974
3685.48662	0.18969
3683.55806	0.18937
3681.62950	0.18981
3679.70093	0.18988
3677.77237	0.19071
3675.84380	0.19753
3673.91524	0.20258
3671.98667	0.20191
3670.05811	0.20600
3668.12954	0.21113
3666.20098	0.21174
3664.27242	0.21284
3662.34385	0.21569
3660.41529	0.21838
3658.48672	0.22108
3656.55816	0.22629
3654.62959	0.23044
3652.70103	0.23132
3650.77246	0.23679
3648.84390	0.25253
3646.91534	0.25965
3644.98677	0.25917
3643.05821	0.26005
3641.12964	0.26386
3639.20108	0.26879
3637.27251	0.27345
3635.34395	0.27766
3633.41538	0.28093
3631.48682	0.28403
3629.55826	0.29444
3627.62969	0.30909
3625.70113	0.31305
3623.77256	0.31332
3621.84400	0.31581
3619.91543	0.32369
3617.98687	0.33301
3616.05830	0.33723
3614.12974	0.34129
3612.20118	0.34756
3610.27261	0.35372
3608.34405	0.36194
3606.41548	0.37043
3604.48692	0.37490
3602.55835	0.37889
3600.62979	0.38600
3598.70123	0.39378
3596.77266	0.40034
3594.84410	0.40811
3592.91553	0.41552
3590.98697	0.41950
3589.05840	0.42544
3587.12984	0.43867
3585.20127	0.44920
3583.27271	0.45436
3581.34415	0.46011
3579.41558	0.46739
3577.48702	0.47440
3575.55845	0.48146
3573.62989	0.48843
3571.70132	0.49393
3569.77276	0.49915
3567.84419	0.50924
3565.91563	0.52370
3563.98707	0.53257
3562.05850	0.53852
3560.12994	0.54594
3558.20137	0.55389
3556.27281	0.56054
3554.34424	0.56747
3552.41568	0.57718
3550.48711	0.58699
3548.55855	0.59503
3546.62999	0.60391
3544.70142	0.61352
3542.77286	0.62103
3540.84429	0.62711
3538.91573	0.63481
3536.98716	0.64570
3535.05860	0.65652
3533.13003	0.66365
3531.20147	0.66954
3529.27291	0.67850
3527.34434	0.69082
3525.41578	0.70267
3523.48721	0.71187
3521.55865	0.71948
3519.63008	0.72774
3517.70152	0.73771
3515.77295	0.74695
3513.84439	0.75522
3511.91583	0.76624
3509.98726	0.78056
3508.05870	0.79359
3506.13013	0.80307
3504.20157	0.81434
3502.27300	0.82972
3500.34444	0.84285
3498.41587	0.85350
3496.48731	0.86513
3494.55875	0.87598
3492.63018	0.88530
3490.70162	0.89479
3488.77305	0.90336
3486.84449	0.91134
3484.91592	0.91902
3482.98736	0.92558
3481.05879	0.93302
3479.13023	0.94068
3477.20167	0.94624
3475.27310	0.95210
3473.34454	0.96105
3471.41597	0.96970
3469.48741	0.97512
3467.55884	0.98043
3465.63028	0.98751
3463.70171	0.99416
3461.77315	0.99902
3459.84459	1.00583
3457.91602	1.01536
3455.98746	1.02104
3454.05889	1.02218
3452.13033	1.02572
3450.20176	1.03438
3448.27320	1.04532
3446.34464	1.05326
3444.41607	1.05597
3442.48751	1.05900
3440.55894	1.06450
3438.63038	1.06751
3436.70181	1.06700
3434.77325	1.06675
3432.84468	1.06982
3430.91612	1.07522
3428.98756	1.07931
3427.05899	1.08056
3425.13043	1.07900
3423.20186	1.07708
3421.27330	1.08047
3419.34473	1.08784
3417.41617	1.09034
3415.48760	1.08902
3413.55904	1.09183
3411.63048	1.09861
3409.70191	1.10328
3407.77335	1.10318
3405.84478	1.10082
3403.91622	1.10043
3401.98765	1.10392
3400.05909	1.10819
3398.13052	1.11053
3396.20196	1.11427
3394.27340	1.12036
3392.34483	1.12377
3390.41627	1.12330
3388.48770	1.12257
3386.55914	1.12331
3384.63057	1.12588
3382.70201	1.13044
3380.77344	1.13621
3378.84488	1.14131
3376.91632	1.14380
3374.98775	1.14558
3373.05919	1.15032
3371.13062	1.15704
3369.20206	1.16273
3367.27349	1.16598
3365.34493	1.16605
3363.41636	1.16613
3361.48780	1.17045
3359.55924	1.17744
3357.63067	1.18350
3355.70211	1.18719
3353.77354	1.18858
3351.84498	1.18825
3349.91641	1.18770
3347.98785	1.18904
3346.05928	1.19259
3344.13072	1.19799
3342.20216	1.20311
3340.27359	1.20636
3338.34503	1.21267
3336.41646	1.22203
3334.48790	1.22416
3332.55933	1.21978
3330.63077	1.21970
3328.70220	1.22614
3326.77364	1.23627
3324.84508	1.24758
3322.91651	1.25831
3320.98795	1.26812
3319.05938	1.27409
3317.13082	1.27578
3315.20225	1.28065
3313.27369	1.29259
3311.34513	1.30254
3309.41656	1.30203
3307.48800	1.29866
3305.55943	1.30218
3303.63087	1.30841
3301.70230	1.30970
3299.77374	1.30969
3297.84517	1.31371
3295.91661	1.31867
3293.98805	1.32040
3292.05948	1.31839
3290.13092	1.31577
3288.20235	1.31839
3286.27379	1.32425
3284.34522	1.32360
3282.41666	1.31658
3280.48809	1.31189
3278.55953	1.31054
3276.63097	1.30719
3274.70240	1.30180
3272.77384	1.29926
3270.84527	1.30120
3268.91671	1.30324
3266.98814	1.29882
3265.05958	1.28952
3263.13101	1.28082
3261.20245	1.26998
3259.27389	1.25554
3257.34532	1.24233
3255.41676	1.23151
3253.48819	1.22107
3251.55963	1.20929
3249.63106	1.19559
3247.70250	1.18250
3245.77393	1.17197
3243.84537	1.16360
3241.91681	1.15685
3239.98824	1.15045
3238.05968	1.14350
3236.13111	1.13668
3234.20255	1.12979
3232.27398	1.12043
3230.34542	1.10898
3228.41685	1.10027
3226.48829	1.09683
3224.55973	1.09473
3222.63116	1.08780
3220.70260	1.07705
3218.77403	1.06995
3216.84547	1.06760
3214.91690	1.06440
3212.98834	1.05902
3211.05977	1.05328
3209.13121	1.04660
3207.20265	1.03924
3205.27408	1.03240
3203.34552	1.02679
3201.41695	1.02304
3199.48839	1.01965
3197.55982	1.01430
3195.63126	1.00771
3193.70269	1.00221
3191.77413	0.99639
3189.84557	0.98761
3187.91700	0.97793
3185.98844	0.97147
3184.05987	0.96758
3182.13131	0.96183
3180.20274	0.95456
3178.27418	0.94918
3176.34562	0.94536
3174.41705	0.94159
3172.48849	0.93803
3170.55992	0.93392
3168.63136	0.92794
3166.70279	0.92189
3164.77423	0.91764
3162.84566	0.91379
3160.91710	0.90876
3158.98854	0.90231
3157.05997	0.89589
3155.13141	0.89144
3153.20284	0.88884
3151.27428	0.88601
3149.34571	0.88115
3147.41715	0.87488
3145.48858	0.86976
3143.56002	0.86708
3141.63146	0.86472
3139.70289	0.86116
3137.77433	0.85804
3135.84576	0.85576
3133.91720	0.85272
3131.98863	0.84959
3130.06007	0.84817
3128.13150	0.84752
3126.20294	0.84599
3124.27438	0.84472
3122.34581	0.84500
3120.41725	0.84536
3118.48868	0.84452
3116.56012	0.84375
3114.63155	0.84383
3112.70299	0.84384
3110.77442	0.84364
3108.84586	0.84381
3106.91730	0.84400
3104.98873	0.84379
3103.06017	0.84347
3101.13160	0.84316
3099.20304	0.84238
3097.27447	0.84088
3095.34591	0.83926
3093.41734	0.83768
3091.48878	0.83604
3089.56022	0.83477
3087.63165	0.83309
3085.70309	0.82995
3083.77452	0.82704
3081.84596	0.82625
3079.91739	0.82524
3077.98883	0.82165
3076.06026	0.81755
3074.13170	0.81508
3072.20314	0.81411
3070.27457	0.81310
3068.34601	0.80955
3066.41744	0.80361
3064.48888	0.79831
3062.56031	0.79411
3060.63175	0.78939
3058.70318	0.78470
3056.77462	0.78058
3054.84606	0.77580
3052.91749	0.77023
3050.98893	0.76506
3049.06036	0.76037
3047.13180	0.75476
3045.20323	0.74786
3043.27467	0.74111
3041.34610	0.73576
3039.41754	0.73157
3037.48898	0.72735
3035.56041	0.72226
3033.63185	0.71645
3031.70328	0.71122
3029.77472	0.70699
3027.84615	0.70251
3025.91759	0.69821
3023.98903	0.69545
3022.06046	0.69379
3020.13190	0.69195
3018.20333	0.68890
3016.27477	0.68477
3014.34620	0.68082
3012.41764	0.67785
3010.48907	0.67570
3008.56051	0.67407
3006.63195	0.67255
3004.70338	0.67097
3002.77482	0.66962
3000.84625	0.66835
2998.91769	0.66730
2996.98912	0.66720
2995.06056	0.66841
2993.13199	0.67101
2991.20343	0.67536
2989.27487	0.68204
2987.34630	0.69025
2985.41774	0.69848
2983.48917	0.70707
2981.56061	0.71619
2979.63204	0.72502
2977.70348	0.73406
2975.77491	0.74365
2973.84635	0.75363
2971.91779	0.76468
2969.98922	0.77596
2968.06066	0.78546
2966.13209	0.79392
2964.20353	0.80211
2962.27496	0.80687
2960.34640	0.80647
2958.41783	0.80330
2956.48927	0.79808
2954.56071	0.79063
2952.63214	0.78320
2950.70358	0.77756
2948.77501	0.77442
2946.84645	0.77408
2944.91788	0.77704
2942.98932	0.78479
2941.06075	0.79634
2939.13219	0.80872
2937.20363	0.82099
2935.27506	0.83326
2933.34650	0.84464
2931.41793	0.85318
2929.48937	0.85858
2927.56080	0.86351
2925.63224	0.86922
2923.70367	0.87216
2921.77511	0.86875
2919.84655	0.86056
2917.91798	0.84915
2915.98942	0.83199
2914.06085	0.80913
2912.13229	0.78585
2910.20372	0.76636
2908.27516	0.75028
2906.34659	0.73668
2904.41803	0.72631
2902.48947	0.71839
2900.56090	0.71156
2898.63234	0.70641
2896.70377	0.70303
2894.77521	0.70002
2892.84664	0.69656
2890.91808	0.69210
2888.98952	0.68653
2887.06095	0.68194
2885.13239	0.68015
2883.20382	0.68076
2881.27526	0.68282
2879.34669	0.68514
2877.41813	0.68629
2875.48956	0.68554
2873.56100	0.68291
2871.63244	0.67834
2869.70387	0.67155
2867.77531	0.66337
2865.84674	0.65558
2863.91818	0.64972
2861.98961	0.64659
2860.06105	0.64608
2858.13248	0.64814
2856.20392	0.65251
2854.27536	0.65733
2852.34679	0.66014
2850.41823	0.65740
2848.48966	0.64383
2846.56110	0.61975
2844.63253	0.59373
2842.70397	0.57291
2840.77540	0.55803
2838.84684	0.54737
2836.91828	0.53942
2834.98971	0.53263
2833.06115	0.52617
2831.13258	0.52012
2829.20402	0.51511
2827.27545	0.51117
2825.34689	0.50691
2823.41832	0.50237
2821.48976	0.49862
2819.56120	0.49519
2817.63263	0.49162
2815.70407	0.48785
2813.77550	0.48387
2811.84694	0.48040
2809.91837	0.47764
2807.98981	0.47508
2806.06124	0.47249
2804.13268	0.46946
2802.20412	0.46566
2800.27555	0.46168
2798.34699	0.45820
2796.41842	0.45548
2794.48986	0.45317
2792.56129	0.45026
2790.63273	0.44645
2788.70416	0.44274
2786.77560	0.43968
2784.84704	0.43677
2782.91847	0.43390
2780.98991	0.43124
2779.06134	0.42846
2777.13278	0.42541
2775.20421	0.42227
2773.27565	0.41948
2771.34708	0.41746
2769.41852	0.41592
2767.48996	0.41431
2765.56139	0.41253
2763.63283	0.41085
2761.70426	0.40910
2759.77570	0.40699
2757.84713	0.40493
2755.91857	0.40321
2753.99001	0.40142
2752.06144	0.39951
2750.13288	0.39792
2748.20431	0.39637
2746.27575	0.39448
2744.34718	0.39289
2742.41862	0.39185
2740.49005	0.39048
2738.56149	0.38835
2736.63293	0.38633
2734.70436	0.38521
2732.77580	0.38441
2730.84723	0.38309
2728.91867	0.38129
2726.99010	0.37923
2725.06154	0.37713
2723.13297	0.37524
2721.20441	0.37352
2719.27585	0.37174
2717.34728	0.36971
2715.41872	0.36757
2713.49015	0.36546
2711.56159	0.36331
2709.63302	0.36137
2707.70446	0.35976
2705.77589	0.35812
2703.84733	0.35605
2701.91877	0.35353
2699.99020	0.35095
2698.06164	0.34878
2696.13307	0.34691
2694.20451	0.34514
2692.27594	0.34365
2690.34738	0.34227
2688.41881	0.34082
2686.49025	0.33944
2684.56169	0.33797
2682.63312	0.33641
2680.70456	0.33511
2678.77599	0.33417
2676.84743	0.33313
2674.91886	0.33162
2672.99030	0.33007
2671.06173	0.32864
2669.13317	0.32710
2667.20461	0.32577
2665.27604	0.32493
2663.34748	0.32409
2661.41891	0.32287
2659.49035	0.32150
2657.56178	0.32015
2655.63322	0.31869
2653.70465	0.31731
2651.77609	0.31631
2649.84753	0.31561
2647.91896	0.31493
2645.99040	0.31416
2644.06183	0.31326
2642.13327	0.31237
2640.20470	0.31155
2638.27614	0.31070
2636.34757	0.30989
2634.41901	0.30927
2632.49045	0.30864
2630.56188	0.30766
2628.63332	0.30626
2626.70475	0.30471
2624.77619	0.30331
2622.84762	0.30204
2620.91906	0.30073
2618.99049	0.29920
2617.06193	0.29725
2615.13337	0.29495
2613.20480	0.29302
2611.27624	0.29189
2609.34767	0.29082
2607.41911	0.28920
2605.49054	0.28734
2603.56198	0.28582
2601.63342	0.28485
2599.70485	0.28400
2597.77629	0.28288
2595.84772	0.28172
2593.91916	0.28066
2591.99059	0.27952
2590.06203	0.27841
2588.13346	0.27746
2586.20490	0.27633
2584.27634	0.27495
2582.34777	0.27372
2580.41921	0.27283
2578.49064	0.27203
2576.56208	0.27109
2574.63351	0.27008
2572.70495	0.26903
2570.77638	0.26784
2568.84782	0.26660
2566.91926	0.26561
2564.99069	0.26491
2563.06213	0.26416
2561.13356	0.26302
2559.20500	0.26173
2557.27643	0.26085
2555.34787	0.26027
2553.41930	0.25939
2551.49074	0.25834
2549.56218	0.25746
2547.63361	0.25665
2545.70505	0.25586
2543.77648	0.25516
2541.84792	0.25440
2539.91935	0.25348
2537.99079	0.25242
2536.06222	0.25141
2534.13366	0.25053
2532.20510	0.24958
2530.27653	0.24848
2528.34797	0.24723
2526.41940	0.24590
2524.49084	0.24462
2522.56227	0.24345
2520.63371	0.24243
2518.70514	0.24166
2516.77658	0.24090
2514.84802	0.23985
2512.91945	0.23868
2510.99089	0.23778
2509.06232	0.23714
2507.13376	0.23649
2505.20519	0.23583
2503.27663	0.23519
2501.34806	0.23456
2499.41950	0.23385
2497.49094	0.23294
2495.56237	0.23178
2493.63381	0.23057
2491.70524	0.22954
2489.77668	0.22873
2487.84811	0.22800
2485.91955	0.22720
2483.99098	0.22602
2482.06242	0.22429
2480.13386	0.22240
2478.20529	0.22089
2476.27673	0.21981
2474.34816	0.21897
2472.41960	0.21812
2470.49103	0.21702
2468.56247	0.21571
2466.63391	0.21441
2464.70534	0.21326
2462.77678	0.21229
2460.84821	0.21138
2458.91965	0.21058
2456.99108	0.20997
2455.06252	0.20928
2453.13395	0.20830
2451.20539	0.20729
2449.27683	0.20636
2447.34826	0.20535
2445.41970	0.20419
2443.49113	0.20304
2441.56257	0.20202
2439.63400	0.20084
2437.70544	0.19960
2435.77687	0.19871
2433.84831	0.19790
2431.91975	0.19673
2429.99118	0.19551
2428.06262	0.19453
2426.13405	0.19360
2424.20549	0.19261
2422.27692	0.19152
2420.34836	0.19036
2418.41979	0.18940
2416.49123	0.18870
2414.56267	0.18810
2412.63410	0.18745
2410.70554	0.18674
2408.77697	0.18603
2406.84841	0.18503
2404.91984	0.18379
2402.99128	0.18279
2401.06271	0.18202
2399.13415	0.18116
2397.20559	0.18007
2395.27702	0.17880
2393.34846	0.17759
2391.41989	0.17659
2389.49133	0.17560
2387.56276	0.17440
2385.63420	0.17304
2383.70563	0.17155
2381.77707	0.16992
2379.84851	0.16814
2377.91994	0.16614
2375.99138	0.16400
2374.06281	0.16194
2372.13425	0.16019
2370.20568	0.15910
2368.27712	0.15861
2366.34855	0.15798
2364.41999	0.15629
2362.49143	0.15442
2360.56286	0.15558
2358.63430	0.15895
2356.70573	0.16017
2354.77717	0.15928
2352.84860	0.15906
2350.92004	0.15925
2348.99147	0.15835
2347.06291	0.15641
2345.13435	0.15451
2343.20578	0.15366
2341.27722	0.15364
2339.34865	0.15420
2337.42009	0.15496
2335.49152	0.15481
2333.56296	0.15334
2331.63440	0.15132
2329.70583	0.14980
2327.77727	0.14934
2325.84870	0.14975
2323.92014	0.15055
2321.99157	0.15123
2320.06301	0.15142
2318.13444	0.15112
2316.20588	0.15056
2314.27732	0.14980
2312.34875	0.14920
2310.42019	0.14900
2308.49162	0.14889
2306.56306	0.14853
2304.63449	0.14789
2302.70593	0.14719
2300.77736	0.14655
2298.84880	0.14580
2296.92024	0.14496
2294.99167	0.14427
2293.06311	0.14360
2291.13454	0.14282
2289.20598	0.14216
2287.27741	0.14166
2285.34885	0.14116
2283.42028	0.14054
2281.49172	0.13979
2279.56316	0.13918
2277.63459	0.13875
2275.70603	0.13830
2273.77746	0.13799
2271.84890	0.13803
2269.92033	0.13826
2267.99177	0.13851
2266.06320	0.13866
2264.13464	0.13865
2262.20608	0.13864
2260.27751	0.13866
2258.34895	0.13840
2256.42038	0.13795
2254.49182	0.13767
2252.56325	0.13730
2250.63469	0.13639
2248.70612	0.13523
2246.77756	0.13418
2244.84900	0.13314
2242.92043	0.13201
2240.99187	0.13100
2239.06330	0.13013
2237.13474	0.12927
2235.20617	0.12832
2233.27761	0.12739
2231.34904	0.12669
2229.42048	0.12608
2227.49192	0.12540
2225.56335	0.12487
2223.63479	0.12466
2221.70622	0.12460
2219.77766	0.12450
2217.84909	0.12439
2215.92053	0.12428
2213.99196	0.12418
2212.06340	0.12411
2210.13484	0.12399
2208.20627	0.12384
2206.27771	0.12366
2204.34914	0.12332
2202.42058	0.12271
2200.49201	0.12200
2198.56345	0.12143
2196.63488	0.12106
2194.70632	0.12080
2192.77776	0.12059
2190.84919	0.12042
2188.92063	0.12035
2186.99206	0.12035
2185.06350	0.12037
2183.13493	0.12046
2181.20637	0.12072
2179.27781	0.12112
2177.34924	0.12156
2175.42068	0.12205
2173.49211	0.12238
2171.56355	0.12234
2169.63498	0.12218
2167.70642	0.12219
2165.77785	0.12223
2163.84929	0.12200
2161.92073	0.12150
2159.99216	0.12081
2158.06360	0.11992
2156.13503	0.11882
2154.20647	0.11771
2152.27790	0.11675
2150.34934	0.11579
2148.42077	0.11475
2146.49221	0.11373
2144.56365	0.11275
2142.63508	0.11180
2140.70652	0.11113
2138.77795	0.11091
2136.84939	0.11090
2134.92082	0.11089
2132.99226	0.11082
2131.06369	0.11065
2129.13513	0.11052
2127.20657	0.11055
2125.27800	0.11057
2123.34944	0.11047
2121.42087	0.11036
2119.49231	0.11017
2117.56374	0.10978
2115.63518	0.10942
2113.70661	0.10920
2111.77805	0.10884
2109.84949	0.10832
2107.92092	0.10799
2105.99236	0.10788
2104.06379	0.10774
2102.13523	0.10754
2100.20666	0.10751
2098.27810	0.10777
2096.34953	0.10804
2094.42097	0.10831
2092.49241	0.10869
2090.56384	0.10907
2088.63528	0.10936
2086.70671	0.10957
2084.77815	0.10971
2082.84958	0.10960
2080.92102	0.10906
2078.99245	0.10816
2077.06389	0.10711
2075.13533	0.10609
2073.20676	0.10509
2071.27820	0.10387
2069.34963	0.10222
2067.42107	0.10034
2065.49250	0.09859
2063.56394	0.09690
2061.63537	0.09519
2059.70681	0.09366
2057.77825	0.09228
2055.84968	0.09092
2053.92112	0.08969
2051.99255	0.08871
2050.06399	0.08786
2048.13542	0.08703
2046.20686	0.08619
2044.27830	0.08557
2042.34973	0.08532
2040.42117	0.08526
2038.49260	0.08505
2036.56404	0.08462
2034.63547	0.08405
2032.70691	0.08341
2030.77834	0.08282
2028.84978	0.08236
2026.92122	0.08192
2024.99265	0.08127
2023.06409	0.08059
2021.13552	0.08008
2019.20696	0.07964
2017.27839	0.07938
2015.34983	0.07930
2013.42126	0.07921
2011.49270	0.07918
2009.56414	0.07935
2007.63557	0.07958
2005.70701	0.07969
2003.77844	0.07972
2001.84988	0.07966
1999.92131	0.07946
1997.99275	0.07908
1996.06418	0.07852
1994.13562	0.07790
1992.20706	0.07731
1990.27849	0.07655
1988.34993	0.07547
1986.42136	0.07418
1984.49280	0.07291
1982.56423	0.07168
1980.63567	0.07025
1978.70710	0.06859
1976.77854	0.06714
1974.84998	0.06598
1972.92141	0.06490
1970.99285	0.06385
1969.06428	0.06299
1967.13572	0.06234
1965.20715	0.06153
1963.27859	0.06056
1961.35002	0.05973
1959.42146	0.05896
1957.49290	0.05817
1955.56433	0.05737
1953.63577	0.05660
1951.70720	0.05589
1949.77864	0.05529
1947.85007	0.05471
1945.92151	0.05409
1943.99294	0.05369
1942.06438	0.05373
1940.13582	0.05367
1938.20725	0.05331
1936.27869	0.05302
1934.35012	0.05296
1932.42156	0.05312
1930.49299	0.05333
1928.56443	0.05346
1926.63586	0.05354
1924.70730	0.05389
1922.77874	0.05469
1920.85017	0.05517
1918.92161	0.05552
1916.99304	0.05621
1915.06448	0.05636
1913.13591	0.05607
1911.20735	0.05613
1909.27878	0.05644
1907.35022	0.05633
1905.42166	0.05580
1903.49309	0.05530
1901.56453	0.05486
1899.63596	0.05423
1897.70740	0.05357
1895.77883	0.05331
1893.85027	0.05315
1891.92171	0.05269
1889.99314	0.05263
1888.06458	0.05291
1886.13601	0.05271
1884.20745	0.05240
1882.27888	0.05236
1880.35032	0.05232
1878.42175	0.05205
1876.49319	0.05160
1874.56463	0.05108
1872.63606	0.05050
1870.70750	0.05022
1868.77893	0.05097
1866.85037	0.05159
1864.92180	0.05112
1862.99324	0.05060
1861.06467	0.05055
1859.13611	0.05079
1857.20755	0.05102
1855.27898	0.05127
1853.35042	0.05162
1851.42185	0.05212
1849.49329	0.05273
1847.56472	0.05322
1845.63616	0.05426
1843.70759	0.05643
1841.77903	0.05755
1839.85047	0.05738
1837.92190	0.05755
1835.99334	0.05819
1834.06477	0.05829
1832.13621	0.05824
1830.20764	0.05949
1828.27908	0.06104
1826.35051	0.06154
1824.42195	0.06194
1822.49339	0.06212
1820.56482	0.06204
1818.63626	0.06244
1816.70769	0.06313
1814.77913	0.06356
1812.85056	0.06405
1810.92200	0.06531
1808.99343	0.06677
1807.06487	0.06764
1805.13631	0.06813
1803.20774	0.06876
1801.27918	0.07034
1799.35061	0.07245
1797.42205	0.07368
1795.49348	0.07412
1793.56492	0.07536
1791.63635	0.07828
1789.70779	0.07997
1787.77923	0.08015
1785.85066	0.08067
1783.92210	0.08175
1781.99353	0.08317
1780.06497	0.08515
1778.13640	0.08675
1776.20784	0.08737
1774.27927	0.08840
1772.35071	0.09179
1770.42215	0.09571
1768.49358	0.09821
1766.56502	0.10008
1764.63645	0.10160
1762.70789	0.10441
1760.77932	0.10879
1758.85076	0.11263
1756.92220	0.11733
1754.99363	0.12224
1753.06507	0.12658
1751.13650	0.13403
1749.20794	0.14546
1747.27937	0.15530
1745.35081	0.16246
1743.42224	0.16857
1741.49368	0.17442
1739.56512	0.18010
1737.63655	0.18345
1735.70799	0.18561
1733.77942	0.19170
1731.85086	0.19790
1729.92229	0.20141
1727.99373	0.20488
1726.06516	0.20851
1724.13660	0.21356
1722.20804	0.21905
1720.27947	0.22384
1718.35091	0.23265
1716.42234	0.25031
1714.49378	0.26520
1712.56521	0.27604
1710.63665	0.28811
1708.70808	0.30318
1706.77952	0.32660
1704.85096	0.35832
1702.92239	0.38685
1700.99383	0.42782
1699.06526	0.49631
1697.13670	0.56308
1695.20813	0.62976
1693.27957	0.67987
1691.35100	0.71961
1689.42244	0.76889
1687.49388	0.81572
1685.56531	0.86256
1683.63675	0.93814
1681.70818	0.99587
1679.77962	1.02721
1677.85105	1.05510
1675.92249	1.08882
1673.99392	1.12689
1672.06536	1.15772
1670.13680	1.18910
1668.20823	1.22245
1666.27967	1.24150
1664.35110	1.25875
1662.42254	1.28259
1660.49397	1.30068
1658.56541	1.31067
1656.63684	1.31567
1654.70828	1.31752
1652.77972	1.31923
1650.85115	1.32328
1648.92259	1.32548
1646.99402	1.32565
1645.06546	1.32457
1643.13689	1.31935
1641.20833	1.31292
1639.27976	1.30578
1637.35120	1.29994
1635.42264	1.29561
1633.49407	1.28933
1631.56551	1.28271
1629.63694	1.27252
1627.70838	1.25906
1625.77981	1.24451
1623.85125	1.22316
1621.92269	1.19431
1619.99412	1.16900
1618.06556	1.13728
1616.13699	1.08591
1614.20843	1.04253
1612.27986	1.00959
1610.35130	0.97570
1608.42273	0.94130
1606.49417	0.91146
1604.56561	0.88765
1602.63704	0.86885
1600.70848	0.85586
1598.77991	0.84804
1596.85135	0.84355
1594.92278	0.84109
1592.99422	0.84041
1591.06565	0.84215
1589.13709	0.84658
1587.20853	0.85397
1585.27996	0.86407
1583.35140	0.87641
1581.42283	0.88942
1579.49427	0.90122
1577.56570	0.91722
1575.63714	0.94401
1573.70857	0.96296
1571.78001	0.97475
1569.85145	0.99544
1567.92288	1.02014
1565.99432	1.03773
1564.06575	1.05342
1562.13719	1.06575
1560.20862	1.08301
1558.28006	1.12504
1556.35149	1.14549
1554.42293	1.15224
1552.49437	1.15770
1550.56580	1.16040
1548.63724	1.15986
1546.70867	1.15766
1544.78011	1.15419
1542.85154	1.14721
1540.92298	1.13598
1538.99441	1.12503
1537.06585	1.11830
1535.13729	1.10977
1533.20872	1.09611
1531.28016	1.08201
1529.35159	1.07089
1527.42303	1.05881
1525.49446	1.04496
1523.56590	1.03420
1521.63733	1.02734
1519.70877	1.02327
1517.78021	1.01442
1515.85164	0.99561
1513.92308	0.97211
1511.99451	0.94753
1510.06595	0.92385
1508.13738	0.89263
1506.20882	0.84152
1504.28025	0.81126
1502.35169	0.79158
1500.42313	0.77061
1498.49456	0.74534
1496.56600	0.71606
1494.63743	0.69241
1492.70887	0.67540
1490.78030	0.65654
1488.85174	0.63274
1486.92317	0.61444
1484.99461	0.60293
1483.06605	0.59502
1481.13748	0.59004
1479.20892	0.58871
1477.28035	0.59220
1475.35179	0.60217
1473.42322	0.62270
1471.49466	0.64675
1469.56610	0.65948
1467.63753	0.66736
1465.70897	0.67849
1463.78040	0.69169
1461.85184	0.69956
1459.92327	0.70468
1457.99471	0.71668
1456.06614	0.73404
1454.13758	0.73947
1452.20902	0.73945
1450.28045	0.73807
1448.35189	0.73580
1446.42332	0.73272
1444.49476	0.72900
1442.56619	0.72442
1440.63763	0.71928
1438.70906	0.71342
1436.78050	0.70502
1434.85194	0.69487
1432.92337	0.68615
1430.99481	0.67848
1429.06624	0.67217
1427.13768	0.66843
1425.20911	0.66731
1423.28055	0.66830
1421.35198	0.67059
1419.42342	0.67571
1417.49486	0.68151
1415.56629	0.68275
1413.63773	0.68224
1411.70916	0.68246
1409.78060	0.68315
1407.85203	0.68355
1405.92347	0.68467
1403.99490	0.68643
1402.06634	0.68665
1400.13778	0.68560
1398.20921	0.68416
1396.28065	0.68249
1394.35208	0.68101
1392.42352	0.68021
1390.49495	0.68084
1388.56639	0.68561
1386.63782	0.69609
1384.70926	0.70739
1382.78070	0.71680
1380.85213	0.72387
1378.92357	0.72636
1376.99500	0.72299
1375.06644	0.71341
1373.13787	0.69935
1371.20931	0.68462
1369.28074	0.66776
1367.35218	0.64851
1365.42362	0.63056
1363.49505	0.61380
1361.56649	0.59924
1359.63792	0.58973
1357.70936	0.58380
1355.78079	0.58009
1353.85223	0.57815
1351.92366	0.57727
1349.99510	0.57711
1348.06654	0.57757
1346.13797	0.57849
1344.20941	0.57995
1342.28084	0.58209
1340.35228	0.58563
1338.42371	0.59061
1336.49515	0.59617
1334.56659	0.60302
1332.63802	0.61187
1330.70946	0.62169
1328.78089	0.63020
1326.85233	0.63610
1324.92376	0.63984
1322.99520	0.64236
1321.06663	0.64456
1319.13807	0.64694
1317.20951	0.64915
1315.28094	0.65084
1313.35238	0.65216
1311.42381	0.65287
1309.49525	0.65255
1307.56668	0.65089
1305.63812	0.64791
1303.70955	0.64439
1301.78099	0.64073
1299.85243	0.63625
1297.92386	0.63039
1295.99530	0.62383
1294.06673	0.61785
1292.13817	0.61316
1290.20960	0.60983
1288.28104	0.60772
1286.35247	0.60640
1284.42391	0.60501
1282.49535	0.60342
1280.56678	0.60230
1278.63822	0.60216
1276.70965	0.60315
1274.78109	0.60543
1272.85252	0.60924
1270.92396	0.61449
1268.99539	0.62054
1267.06683	0.62675
1265.13827	0.63252
1263.20970	0.63713
1261.28114	0.64028
1259.35257	0.64247
1257.42401	0.64443
1255.49544	0.64677
1253.56688	0.64978
1251.63831	0.65312
1249.70975	0.65645
1247.78119	0.65942
1245.85262	0.66164
1243.92406	0.66317
1241.99549	0.66413
1240.06693	0.66423
1238.13836	0.66327
1236.20980	0.66097
1234.28123	0.65703
1232.35267	0.65168
1230.42411	0.64493
1228.49554	0.63686
1226.56698	0.62789
1224.63841	0.61811
1222.70985	0.60824
1220.78128	0.59887
1218.85272	0.58999
1216.92415	0.58223
1214.99559	0.57654
1213.06703	0.57341
1211.13846	0.57268
1209.20990	0.57339
1207.28133	0.57361
1205.35277	0.57109
1203.42420	0.56502
1201.49564	0.55657
1199.56708	0.54703
1197.63851	0.53710
1195.70995	0.52737
1193.78138	0.51848
1191.85282	0.51123
1189.92425	0.50612
1187.99569	0.50295
1186.06712	0.50117
1184.13856	0.50061
1182.21000	0.50187
1180.28143	0.50548
1178.35287	0.51129
1176.42430	0.51918
1174.49574	0.52868
1172.56717	0.53873
1170.63861	0.54948
1168.71004	0.56229
1166.78148	0.57754
1164.85292	0.59435
1162.92435	0.61091
1160.99579	0.62423
1159.06722	0.63204
1157.13866	0.63427
1155.21009	0.63138
1153.28153	0.62356
1151.35296	0.61199
1149.42440	0.59876
1147.49584	0.58584
1145.56727	0.57490
1143.63871	0.56762
1141.71014	0.56518
1139.78158	0.56749
1137.85301	0.57342
1135.92445	0.58188
1133.99588	0.59296
1132.06732	0.60714
1130.13876	0.62366
1128.21019	0.64128
1126.28163	0.65937
1124.35306	0.67699
1122.42450	0.69323
1120.49593	0.70801
1118.56737	0.72062
1116.63880	0.72958
1114.71024	0.73424
1112.78168	0.73512
1110.85311	0.73390
1108.92455	0.73301
1106.99598	0.73330
1105.06742	0.73351
1103.13885	0.73346
1101.21029	0.73410
1099.28172	0.73642
1097.35316	0.74138
1095.42460	0.74868
1093.49603	0.75818
1091.56747	0.77060
1089.63890	0.78553
1087.71034	0.80249
1085.78177	0.82071
1083.85321	0.83776
1081.92464	0.85164
1079.99608	0.86092
1078.06752	0.86393
1076.13895	0.86007
1074.21039	0.85081
1072.28182	0.83907
1070.35326	0.82631
1068.42469	0.81199
1066.49613	0.79724
1064.56756	0.78448
1062.63900	0.77410
1060.71044	0.76518
1058.78187	0.75707
1056.85331	0.74925
1054.92474	0.74193
1052.99618	0.73605
1051.06761	0.73260
1049.13905	0.73203
1047.21049	0.73413
1045.28192	0.73864
1043.35336	0.74475
1041.42479	0.75191
1039.49623	0.75969
1037.56766	0.76565
1035.63910	0.76811
1033.71053	0.76847
1031.78197	0.76733
1029.85341	0.76343
1027.92484	0.75642
1025.99628	0.74713
1024.06771	0.73675
1022.13915	0.72648
1020.21058	0.71699
1018.28202	0.70842
1016.35345	0.69990
1014.42489	0.68957
1012.49633	0.67632
1010.56776	0.65987
1008.63920	0.64044
1006.71063	0.61977
1004.78207	0.60017
1002.85350	0.58289
1000.92494	0.56804
998.99637	0.55572
997.06781	0.54629
995.13925	0.53864
993.21068	0.53055
991.28212	0.52055
989.35355	0.50822
987.42499	0.49403
985.49642	0.47894
983.56786	0.46366
981.63929	0.44913
979.71073	0.43645
977.78217	0.42538
975.85360	0.41473
973.92504	0.40369
971.99647	0.39226
970.06791	0.38108
968.13934	0.37078
966.21078	0.36230
964.28221	0.35715
962.35365	0.35681
960.42509	0.36258
958.49652	0.37421
956.56796	0.38778
954.63939	0.39768
952.71083	0.40111
950.78226	0.39889
948.85370	0.39326
946.92513	0.38672
944.99657	0.38104
943.06801	0.37635
941.13944	0.37180
939.21088	0.36708
937.28231	0.36242
935.35375	0.35769
933.42518	0.35278
931.49662	0.34806
929.56805	0.34409
927.63949	0.34148
925.71093	0.34065
923.78236	0.34160
921.85380	0.34376
919.92523	0.34622
917.99667	0.34856
916.06810	0.35111
914.13954	0.35410
912.21098	0.35744
910.28241	0.36115
908.35385	0.36494
906.42528	0.36832
904.49672	0.37103
902.56815	0.37252
900.63959	0.37200
898.71102	0.36908
896.78246	0.36359
894.85390	0.35590
892.92533	0.34681
890.99677	0.33717
889.06820	0.32792
887.13964	0.31975
885.21107	0.31293
883.28251	0.30807
881.35394	0.30608
879.42538	0.30705
877.49682	0.31020
875.56825	0.31499
873.63969	0.32136
871.71112	0.32927
869.78256	0.33830
867.85399	0.34773
865.92543	0.35716
863.99686	0.36661
862.06830	0.37581
860.13974	0.38385
858.21117	0.39038
856.28261	0.39542
854.35404	0.39852
852.42548	0.39946
850.49691	0.39828
848.56835	0.39508
846.63978	0.39061
844.71122	0.38615
842.78266	0.38277
840.85409	0.38044
838.92553	0.37880
836.99696	0.37836
835.06840	0.37954
833.13983	0.38221
831.21127	0.38605
829.28270	0.39053
827.35414	0.39512
825.42558	0.39959
823.49701	0.40386
821.56845	0.40763
819.63988	0.41049
817.71132	0.41251
815.78275	0.41380
813.85419	0.41363
811.92562	0.41159
809.99706	0.40836
808.06850	0.40444
806.13993	0.39997
804.21137	0.39554
802.28280	0.39159
800.35424	0.38808
798.42567	0.38526
796.49711	0.38380
794.56854	0.38410
792.63998	0.38627
790.71142	0.39088
788.78285	0.39844
786.85429	0.40835
784.92572	0.42010
782.99716	0.43338
781.06859	0.44747
779.14003	0.46171
777.21147	0.47555
775.28290	0.48848
773.35434	0.49956
771.42577	0.50759
769.49721	0.51229
767.56864	0.51428
765.64008	0.51428
763.71151	0.51280
761.78295	0.51005
759.85439	0.50647
757.92582	0.50308
755.99726	0.50053
754.06869	0.49924
752.14013	0.49966
750.21156	0.50129
748.28300	0.50343
746.35443	0.50633
744.42587	0.51057
742.49731	0.51620
740.56874	0.52255
738.64018	0.52856
736.71161	0.53396
734.78305	0.53927
732.85448	0.54490
730.92592	0.55105
728.99735	0.55700
727.06879	0.56171
725.14023	0.56526
723.21166	0.56793
721.28310	0.56942
719.35453	0.56878
717.42597	0.56618
715.49740	0.56365
713.56884	0.56194
711.64027	0.56046
709.71171	0.55940
707.78315	0.55883
705.85458	0.55820
703.92602	0.55750
701.99745	0.55727
700.06889	0.55760
698.14032	0.55821
696.21176	0.55937
694.28319	0.56160
692.35463	0.56526
690.42607	0.56997
688.49750	0.57418
686.56894	0.57744
684.64037	0.58060
682.71181	0.58353
680.78324	0.58583
678.85468	0.58741
676.92611	0.58770
674.99755	0.58626
673.06899	0.58343
671.14042	0.57953
669.21186	0.57541
667.28329	0.57463
665.35473	0.57573
663.42616	0.57671
661.49760	0.57848
659.56903	0.58080
657.64047	0.58397
655.71191	0.58913
653.78334	0.59591
651.85478	0.60252
649.92621	0.60877
647.99765	0.61610
646.06908	0.62446
644.14052	0.63289
642.21195	0.64078
640.28339	0.64688
638.35483	0.65062
636.42626	0.65336
634.49770	0.65574
632.56913	0.65689
630.64057	0.65692
628.71200	0.65621
626.78344	0.65360
624.85488	0.64922
622.92631	0.64567
620.99775	0.64365
619.06918	0.64228
617.14062	0.64081
615.21205	0.63804
613.28349	0.63470
611.35492	0.63277
609.42636	0.63119
607.49780	0.62849
605.56923	0.62682
603.64067	0.62694
601.71210	0.62628
599.78354	0.62430
