3997.91406	0.20191
3995.98550	0.20189
3994.05693	0.20261
3992.12837	0.20335
3990.19980	0.20374
3988.27124	0.20323
3986.34268	0.20182
3984.41411	0.20063
3982.48555	0.20031
3980.55698	0.20069
3978.62842	0.20106
3976.69985	0.20062
3974.77129	0.19975
3972.84272	0.19929
3970.91416	0.19957
3968.98560	0.20009
3967.05703	0.19949
3965.12847	0.19776
3963.19990	0.19677
3961.27134	0.19667
3959.34277	0.19589
3957.41421	0.19493
3955.48564	0.19452
3953.55708	0.19401
3951.62852	0.19342
3949.69995	0.19375
3947.77139	0.19441
3945.84282	0.19372
3943.91426	0.19341
3941.98569	0.19405
3940.05713	0.19310
3938.12856	0.19190
3936.20000	0.19207
3934.27144	0.19236
3932.34287	0.19216
3930.41431	0.19165
3928.48574	0.19013
3926.55718	0.18875
3924.62861	0.18939
3922.70005	0.18963
3920.77148	0.18811
3918.84292	0.18802
3916.91436	0.19006
3914.98579	0.19046
3913.05723	0.18848
3911.12866	0.18671
3909.20010	0.18507
3907.27153	0.18258
3905.34297	0.18211
3903.41440	0.18522
3901.48584	0.18794
3899.55728	0.18947
3897.62871	0.18862
3895.70015	0.18504
3893.77158	0.18277
3891.84302	0.18495
3889.91445	0.18522
3887.98589	0.18165
3886.05733	0.18117
3884.12876	0.18237
3882.20020	0.18122
3880.27163	0.18207
3878.34307	0.18118
3876.41450	0.17751
3874.48594	0.17629
3872.55737	0.17762
3870.62881	0.18064
3868.70025	0.18178
3866.77168	0.17836
3864.84312	0.17752
3862.91455	0.18015
3860.98599	0.17924
3859.05742	0.17548
3857.12886	0.17128
3855.20029	0.17132
3853.27173	0.18264
3851.34317	0.18589
3849.41460	0.17929
3847.48604	0.17288
3845.55747	0.16917
3843.62891	0.16809
3841.70034	0.16772
3839.77178	0.16915
3837.84321	0.17336
3835.91465	0.17419
3833.98609	0.17318
3832.05752	0.17376
3830.12896	0.17329
3828.20039	0.17138
3826.27183	0.17011
3824.34326	0.16817
3822.41470	0.16890
3820.48613	0.17421
3818.55757	0.17290
3816.62901	0.17091
3814.70044	0.17169
3812.77188	0.16866
3810.84331	0.16350
3808.91475	0.16130
3806.98618	0.16462
3805.05762	0.16536
3803.12905	0.16349
3801.20049	0.16691
3799.27193	0.16768
3797.34336	0.16584
3795.41480	0.16617
3793.48623	0.16531
3791.55767	0.16348
3789.62910	0.16208
3787.70054	0.16059
3785.77197	0.16013
3783.84341	0.16021
3781.91485	0.15933
3779.98628	0.16018
3778.05772	0.16183
3776.12915	0.16020
3774.20059	0.15667
3772.27202	0.15427
3770.34346	0.15592
3768.41489	0.15870
3766.48633	0.15935
3764.55777	0.15923
3762.62920	0.15711
3760.70064	0.15559
3758.77207	0.15797
3756.84351	0.15817
3754.91494	0.15407
3752.98638	0.15199
3751.05781	0.15890
3749.12925	0.16302
3747.20069	0.15875
3745.27212	0.15788
3743.34356	0.16027
3741.41499	0.15762
3739.48643	0.15256
3737.55786	0.15011
3735.62930	0.15454
3733.70074	0.16053
3731.77217	0.16012
3729.84361	0.15614
3727.91504	0.15292
3725.98648	0.15319
3724.05791	0.15498
3722.12935	0.15552
3720.20078	0.15551
3718.27222	0.15453
3716.34366	0.15178
3714.41509	0.14867
3712.48653	0.15032
3710.55796	0.15680
3708.62940	0.15738
3706.70083	0.15435
3704.77227	0.15204
3702.84370	0.15266
3700.91514	0.15483
3698.98658	0.15422
3697.05801	0.15218
3695.12945	0.15018
3693.20088	0.14786
3691.27232	0.14793
3689.34375	0.15500
3687.41519	0.16055
3685.48662	0.16016
3683.55806	0.15899
3681.62950	0.15881
3679.70093	0.15813
3677.77237	0.15796
3675.84380	0.16540
3673.91524	0.17122
3671.98667	0.16997
3670.05811	0.17449
3668.12954	0.17922
3666.20098	0.17746
3664.27242	0.17607
3662.34385	0.17691
3660.41529	0.17783
3658.48672	0.17948
3656.55816	0.18513
3654.62959	0.18890
3652.70103	0.18684
3650.77246	0.18862
3648.84390	0.20492
3646.91534	0.21441
3644.98677	0.21277
3643.05821	0.21119
3641.12964	0.21287
3639.20108	0.21623
3637.27251	0.21967
3635.34395	0.22276
3633.41538	0.22402
3631.48682	0.22433
3629.55826	0.23331
3627.62969	0.24793
3625.70113	0.25033
3623.77256	0.24813
3621.84400	0.24797
3619.91543	0.25359
3617.98687	0.26124
3616.05830	0.26384
3614.12974	0.26672
3612.20118	0.27184
3610.27261	0.27608
3608.34405	0.28209
3606.41548	0.28846
3604.48692	0.29087
3602.55835	0.29279
3600.62979	0.29794
3598.70123	0.30405
3596.77266	0.30910
3594.84410	0.31502
3592.91553	0.31924
3590.98697	0.31942
3589.05840	0.32250
3587.12984	0.33376
3585.20127	0.34149
3583.27271	0.34360
3581.34415	0.34676
3579.41558	0.35207
3577.48702	0.35764
3575.55845	0.36263
3573.62989	0.36611
3571.70132	0.36734
3569.77276	0.36913
3567.84419	0.37856
3565.91563	0.39320
3563.98707	0.39964
3562.05850	0.40203
3560.12994	0.40530
3558.20137	0.40917
3556.27281	0.41367
3554.34424	0.42007
3552.41568	0.42808
3550.48711	0.43373
3548.55855	0.43738
3546.62999	0.44434
3544.70142	0.45374
3542.77286	0.45966
3540.84429	0.46273
3538.91573	0.46648
3536.98716	0.47288
3535.05860	0.48080
3533.13003	0.48753
3531.20147	0.49332
3529.27291	0.49946
3527.34434	0.50534
3525.41578	0.51133
3523.48721	0.51922
3521.55865	0.52786
3519.63008	0.53521
3517.70152	0.54163
3515.77295	0.54752
3513.84439	0.55386
3511.91583	0.56261
3509.98726	0.57429
3508.05870	0.58499
3506.13013	0.59212
3504.20157	0.60083
3502.27300	0.61309
3500.34444	0.62327
3498.41587	0.63128
3496.48731	0.64060
3494.55875	0.65153
3492.63018	0.66141
3490.70162	0.66898
3488.77305	0.67578
3486.84449	0.68199
3484.91592	0.68677
3482.98736	0.69278
3481.05879	0.70074
3479.13023	0.70633
3477.20167	0.70982
3475.27310	0.71416
3473.34454	0.71941
3471.41597	0.72439
3469.48741	0.72886
3467.55884	0.73376
3465.63028	0.73946
3463.70171	0.74591
3461.77315	0.75230
3459.84459	0.75775
3457.91602	0.76297
3455.98746	0.76857
3454.05889	0.77451
3452.13033	0.77938
3450.20176	0.78322
3448.27320	0.79062
3446.34464	0.80043
3444.41607	0.80495
3442.48751	0.80625
3440.55894	0.80927
3438.63038	0.81249
3436.70181	0.81365
3434.77325	0.81380
3432.84468	0.81596
3430.91612	0.81930
3428.98756	0.82144
3427.05899	0.82292
3425.13043	0.82438
3423.20186	0.82701
3421.27330	0.83005
3419.34473	0.83012
3417.41617	0.82881
3415.48760	0.82939
3413.55904	0.83157
3411.63048	0.83402
3409.70191	0.83454
3407.77335	0.83370
3405.84478	0.83630
3403.91622	0.84195
3401.98765	0.84607
3400.05909	0.84845
3398.13052	0.85108
3396.20196	0.85353
3394.27340	0.85495
3392.34483	0.85664
3390.41627	0.85913
3388.48770	0.86178
3386.55914	0.86427
3384.63057	0.86605
3382.70201	0.86669
3380.77344	0.86731
3378.84488	0.87001
3376.91632	0.87410
3374.98775	0.87792
3373.05919	0.88138
3371.13062	0.88309
3369.20206	0.88266
3367.27349	0.88346
3365.34493	0.88725
3363.41636	0.89214
3361.48780	0.89751
3359.55924	0.90280
3357.63067	0.90531
3355.70211	0.90593
3353.77354	0.90959
3351.84498	0.91708
3349.91641	0.92268
3347.98785	0.92348
3346.05928	0.92448
3344.13072	0.92998
3342.20216	0.93732
3340.27359	0.94233
3338.34503	0.94579
3336.41646	0.95019
3334.48790	0.95617
3332.55933	0.96316
3330.63077	0.96966
3328.70220	0.97544
3326.77364	0.98091
3324.84508	0.98468
3322.91651	0.98802
3320.98795	0.99407
3319.05938	1.00085
3317.13082	1.00657
3315.20225	1.01477
3313.27369	1.02526
3311.34513	1.03477
3309.41656	1.04370
3307.48800	1.05098
3305.55943	1.05571
3303.63087	1.06066
3301.70230	1.06638
3299.77374	1.07139
3297.84517	1.07544
3295.91661	1.07977
3293.98805	1.08608
3292.05948	1.09327
3290.13092	1.09734
3288.20235	1.09718
3286.27379	1.09697
3284.34522	1.09926
3282.41666	1.10083
3280.48809	1.09806
3278.55953	1.09302
3276.63097	1.09044
3274.70240	1.08974
3272.77384	1.08712
3270.84527	1.08197
3268.91671	1.07507
3266.98814	1.06727
3265.05958	1.05976
3263.13101	1.05256
3261.20245	1.04476
3259.27389	1.03478
3257.34532	1.02290
3255.41676	1.01156
3253.48819	1.00098
3251.55963	0.98983
3249.63106	0.97827
3247.70250	0.96699
3245.77393	0.95559
3243.84537	0.94408
3241.91681	0.93354
3239.98824	0.92433
3238.05968	0.91565
3236.13111	0.90667
3234.20255	0.89861
3232.27398	0.89213
3230.34542	0.88631
3228.41685	0.88217
3226.48829	0.87845
3224.55973	0.87202
3222.63116	0.86466
3220.70260	0.85895
3218.77403	0.85408
3216.84547	0.84866
3214.91690	0.84219
3212.98834	0.83606
3211.05977	0.83109
3209.13121	0.82522
3207.20265	0.81824
3205.27408	0.81224
3203.34552	0.80737
3201.41695	0.80261
3199.48839	0.79746
3197.55982	0.79241
3195.63126	0.78766
3193.70269	0.78273
3191.77413	0.77748
3189.84557	0.77184
3187.91700	0.76610
3185.98844	0.76062
3184.05987	0.75569
3182.13131	0.75160
3180.20274	0.74737
3178.27418	0.74187
3176.34562	0.73589
3174.41705	0.73058
3172.48849	0.72595
3170.55992	0.72138
3168.63136	0.71667
3166.70279	0.71301
3164.77423	0.71048
3162.84566	0.70689
3160.91710	0.70148
3158.98854	0.69550
3157.05997	0.69039
3155.13141	0.68697
3153.20284	0.68403
3151.27428	0.68066
3149.34571	0.67813
3147.41715	0.67645
3145.48858	0.67419
3143.56002	0.67113
3141.63146	0.66837
3139.70289	0.66652
3137.77433	0.66476
3135.84576	0.66271
3133.91720	0.66068
3131.98863	0.65902
3130.06007	0.65843
3128.13150	0.65872
3126.20294	0.65900
3124.27438	0.65914
3122.34581	0.65899
3120.41725	0.65853
3118.48868	0.65863
3116.56012	0.65951
3114.63155	0.66011
3112.70299	0.65999
3110.77442	0.65974
3108.84586	0.65924
3106.91730	0.65827
3104.98873	0.65752
3103.06017	0.65717
3101.13160	0.65634
3099.20304	0.65460
3097.27447	0.65311
3095.34591	0.65257
3093.41734	0.65131
3091.48878	0.64892
3089.56022	0.64724
3087.63165	0.64634
3085.70309	0.64530
3083.77452	0.64403
3081.84596	0.64201
3079.91739	0.63919
3077.98883	0.63679
3076.06026	0.63542
3074.13170	0.63389
3072.20314	0.63102
3070.27457	0.62731
3068.34601	0.62376
3066.41744	0.62075
3064.48888	0.61778
3062.56031	0.61430
3060.63175	0.61049
3058.70318	0.60649
3056.77462	0.60252
3054.84606	0.59898
3052.91749	0.59511
3050.98893	0.59005
3049.06036	0.58497
3047.13180	0.58096
3045.20323	0.57723
3043.27467	0.57351
3041.34610	0.57040
3039.41754	0.56784
3037.48898	0.56493
3035.56041	0.56111
3033.63185	0.55719
3031.70328	0.55394
3029.77472	0.55111
3027.84615	0.54827
3025.91759	0.54543
3023.98903	0.54270
3022.06046	0.54003
3020.13190	0.53739
3018.20333	0.53488
3016.27477	0.53318
3014.34620	0.53261
3012.41764	0.53195
3010.48907	0.53025
3008.56051	0.52831
3006.63195	0.52708
3004.70338	0.52638
3002.77482	0.52564
3000.84625	0.52508
2998.91769	0.52515
2996.98912	0.52546
2995.06056	0.52641
2993.13199	0.52890
2991.20343	0.53248
2989.27487	0.53643
2987.34630	0.54090
2985.41774	0.54629
2983.48917	0.55284
2981.56061	0.55993
2979.63204	0.56673
2977.70348	0.57370
2975.77491	0.58157
2973.84635	0.58980
2971.91779	0.59787
2969.98922	0.60594
2968.06066	0.61390
2966.13209	0.62146
2964.20353	0.62776
2962.27496	0.63159
2960.34640	0.63228
2958.41783	0.62975
2956.48927	0.62507
2954.56071	0.61992
2952.63214	0.61512
2950.70358	0.61103
2948.77501	0.60851
2946.84645	0.60869
2944.91788	0.61216
2942.98932	0.61840
2941.06075	0.62653
2939.13219	0.63587
2937.20363	0.64621
2935.27506	0.65771
2933.34650	0.66934
2931.41793	0.67919
2929.48937	0.68698
2927.56080	0.69378
2925.63224	0.69997
2923.70367	0.70490
2921.77511	0.70815
2919.84655	0.70878
2917.91798	0.70375
2915.98942	0.68989
2914.06085	0.66843
2912.13229	0.64577
2910.20372	0.62732
2908.27516	0.61308
2906.34659	0.60154
2904.41803	0.59266
2902.48947	0.58598
2900.56090	0.58073
2898.63234	0.57686
2896.70377	0.57389
2894.77521	0.57077
2892.84664	0.56714
2890.91808	0.56365
2888.98952	0.56040
2887.06095	0.55703
2885.13239	0.55471
2883.20382	0.55447
2881.27526	0.55521
2879.34669	0.55556
2877.41813	0.55548
2875.48956	0.55492
2873.56100	0.55306
2871.63244	0.54950
2869.70387	0.54475
2867.77531	0.53923
2865.84674	0.53355
2863.91818	0.52957
2861.98961	0.52860
2860.06105	0.53022
2858.13248	0.53400
2856.20392	0.53974
2854.27536	0.54674
2852.34679	0.55334
2850.41823	0.55481
2848.48966	0.54514
2846.56110	0.52483
2844.63253	0.50195
2842.70397	0.48302
2840.77540	0.46893
2838.84684	0.45852
2836.91828	0.45090
2834.98971	0.44510
2833.06115	0.44037
2831.13258	0.43620
2829.20402	0.43220
2827.27545	0.42841
2825.34689	0.42470
2823.41832	0.42103
2821.48976	0.41783
2819.56120	0.41516
2817.63263	0.41262
2815.70407	0.40981
2813.77550	0.40676
2811.84694	0.40375
2809.91837	0.40133
2807.98981	0.39964
2806.06124	0.39776
2804.13268	0.39523
2802.20412	0.39241
2800.27555	0.38940
2798.34699	0.38659
2796.41842	0.38467
2794.48986	0.38299
2792.56129	0.38078
2790.63273	0.37875
2788.70416	0.37721
2786.77560	0.37550
2784.84704	0.37353
2782.91847	0.37163
2780.98991	0.36985
2779.06134	0.36803
2777.13278	0.36599
2775.20421	0.36372
2773.27565	0.36185
2771.34708	0.36071
2769.41852	0.35958
2767.48996	0.35812
2765.56139	0.35664
2763.63283	0.35529
2761.70426	0.35412
2759.77570	0.35312
2757.84713	0.35220
2755.91857	0.35116
2753.99001	0.34992
2752.06144	0.34860
2750.13288	0.34745
2748.20431	0.34640
2746.27575	0.34497
2744.34718	0.34321
2742.41862	0.34183
2740.49005	0.34122
2738.56149	0.34088
2736.63293	0.34024
2734.70436	0.33946
2732.77580	0.33850
2730.84723	0.33712
2728.91867	0.33574
2726.99010	0.33465
2725.06154	0.33360
2723.13297	0.33250
2721.20441	0.33108
2719.27585	0.32915
2717.34728	0.32719
2715.41872	0.32528
2713.49015	0.32312
2711.56159	0.32104
2709.63302	0.31961
2707.70446	0.31864
2705.77589	0.31760
2703.84733	0.31649
2701.91877	0.31542
2699.99020	0.31440
2698.06164	0.31328
2696.13307	0.31197
2694.20451	0.31091
2692.27594	0.31031
2690.34738	0.30975
2688.41881	0.30888
2686.49025	0.30783
2684.56169	0.30673
2682.63312	0.30546
2680.70456	0.30415
2678.77599	0.30285
2676.84743	0.30134
2674.91886	0.29964
2672.99030	0.29808
2671.06173	0.29662
2669.13317	0.29510
2667.20461	0.29387
2665.27604	0.29302
2663.34748	0.29213
2661.41891	0.29082
2659.49035	0.28934
2657.56178	0.28836
2655.63322	0.28776
2653.70465	0.28707
2651.77609	0.28638
2649.84753	0.28584
2647.91896	0.28555
2645.99040	0.28543
2644.06183	0.28523
2642.13327	0.28456
2640.20470	0.28347
2638.27614	0.28264
2636.34757	0.28234
2634.41901	0.28189
2632.49045	0.28111
2630.56188	0.28044
2628.63332	0.27983
2626.70475	0.27901
2624.77619	0.27808
2622.84762	0.27731
2620.91906	0.27698
2618.99049	0.27692
2617.06193	0.27654
2615.13337	0.27577
2613.20480	0.27510
2611.27624	0.27458
2609.34767	0.27358
2607.41911	0.27214
2605.49054	0.27109
2603.56198	0.27062
2601.63342	0.27010
2599.70485	0.26920
2597.77629	0.26817
2595.84772	0.26734
2593.91916	0.26673
2591.99059	0.26610
2590.06203	0.26525
2588.13346	0.26426
2586.20490	0.26340
2584.27634	0.26269
2582.34777	0.26204
2580.41921	0.26131
2578.49064	0.26051
2576.56208	0.25982
2574.63351	0.25911
2572.70495	0.25809
2570.77638	0.25685
2568.84782	0.25572
2566.91926	0.25482
2564.99069	0.25390
2563.06213	0.25256
2561.13356	0.25089
2559.20500	0.24934
2557.27643	0.24809
2555.34787	0.24690
2553.41930	0.24565
2551.49074	0.24459
2549.56218	0.24375
2547.63361	0.24287
2545.70505	0.24197
2543.77648	0.24134
2541.84792	0.24088
2539.91935	0.24018
2537.99079	0.23920
2536.06222	0.23832
2534.13366	0.23796
2532.20510	0.23805
2530.27653	0.23790
2528.34797	0.23733
2526.41940	0.23673
2524.49084	0.23620
2522.56227	0.23560
2520.63371	0.23529
2518.70514	0.23538
2516.77658	0.23519
2514.84802	0.23458
2512.91945	0.23404
2510.99089	0.23372
2509.06232	0.23353
2507.13376	0.23330
2505.20519	0.23306
2503.27663	0.23315
2501.34806	0.23345
2499.41950	0.23331
2497.49094	0.23257
2495.56237	0.23173
2493.63381	0.23121
2491.70524	0.23107
2489.77668	0.23105
2487.84811	0.23078
2485.91955	0.23017
2483.99098	0.22928
2482.06242	0.22833
2480.13386	0.22745
2478.20529	0.22660
2476.27673	0.22569
2474.34816	0.22484
2472.41960	0.22415
2470.49103	0.22343
2468.56247	0.22261
2466.63391	0.22185
2464.70534	0.22129
2462.77678	0.22091
2460.84821	0.22048
2458.91965	0.21966
2456.99108	0.21862
2455.06252	0.21765
2453.13395	0.21675
2451.20539	0.21588
2449.27683	0.21496
2447.34826	0.21392
2445.41970	0.21291
2443.49113	0.21205
2441.56257	0.21116
2439.63400	0.21003
2437.70544	0.20880
2435.77687	0.20781
2433.84831	0.20709
2431.91975	0.20642
2429.99118	0.20585
2428.06262	0.20529
2426.13405	0.20462
2424.20549	0.20406
2422.27692	0.20351
2420.34836	0.20266
2418.41979	0.20181
2416.49123	0.20129
2414.56267	0.20091
2412.63410	0.20042
2410.70554	0.19979
2408.77697	0.19904
2406.84841	0.19813
2404.91984	0.19733
2402.99128	0.19695
2401.06271	0.19683
2399.13415	0.19660
2397.20559	0.19617
2395.27702	0.19577
2393.34846	0.19563
2391.41989	0.19564
2389.49133	0.19550
2387.56276	0.19508
2385.63420	0.19433
2383.70563	0.19323
2381.77707	0.19197
2379.84851	0.19085
2377.91994	0.18979
2375.99138	0.18850
2374.06281	0.18709
2372.13425	0.18610
2370.20568	0.18574
2368.27712	0.18518
2366.34855	0.18372
2364.41999	0.18248
2362.49143	0.18237
2360.56286	0.18293
2358.63430	0.18369
2356.70573	0.18410
2354.77717	0.18494
2352.84860	0.18672
2350.92004	0.18692
2348.99147	0.18479
2347.06291	0.18201
2345.13435	0.18069
2343.20578	0.18090
2341.27722	0.17987
2339.34865	0.17789
2337.42009	0.17728
2335.49152	0.17789
2333.56296	0.17814
2331.63440	0.17792
2329.70583	0.17756
2327.77727	0.17683
2325.84870	0.17622
2323.92014	0.17641
2321.99157	0.17704
2320.06301	0.17744
2318.13444	0.17747
2316.20588	0.17740
2314.27732	0.17736
2312.34875	0.17734
2310.42019	0.17748
2308.49162	0.17770
2306.56306	0.17766
2304.63449	0.17728
2302.70593	0.17678
2300.77736	0.17638
2298.84880	0.17607
2296.92024	0.17578
2294.99167	0.17559
2293.06311	0.17536
2291.13454	0.17498
2289.20598	0.17468
2287.27741	0.17459
2285.34885	0.17445
2283.42028	0.17407
2281.49172	0.17345
2279.56316	0.17278
2277.63459	0.17225
2275.70603	0.17185
2273.77746	0.17156
2271.84890	0.17150
2269.92033	0.17175
2267.99177	0.17211
2266.06320	0.17228
2264.13464	0.17223
2262.20608	0.17210
2260.27751	0.17196
2258.34895	0.17183
2256.42038	0.17174
2254.49182	0.17171
2252.56325	0.17166
2250.63469	0.17141
2248.70612	0.17104
2246.77756	0.17074
2244.84900	0.17036
2242.92043	0.16980
2240.99187	0.16929
2239.06330	0.16889
2237.13474	0.16839
2235.20617	0.16766
2233.27761	0.16681
2231.34904	0.16608
2229.42048	0.16551
2227.49192	0.16493
2225.56335	0.16433
2223.63479	0.16382
2221.70622	0.16342
2219.77766	0.16298
2217.84909	0.16246
2215.92053	0.16207
2213.99196	0.16189
2212.06340	0.16164
2210.13484	0.16117
2208.20627	0.16072
2206.27771	0.16052
2204.34914	0.16043
2202.42058	0.16030
2200.49201	0.16017
2198.56345	0.15989
2196.63488	0.15935
2194.70632	0.15888
2192.77776	0.15851
2190.84919	0.15802
2188.92063	0.15753
2186.99206	0.15714
2185.06350	0.15683
2183.13493	0.15660
2181.20637	0.15641
2179.27781	0.15625
2177.34924	0.15607
2175.42068	0.15590
2173.49211	0.15584
2171.56355	0.15575
2169.63498	0.15547
2167.70642	0.15520
2165.77785	0.15500
2163.84929	0.15470
2161.92073	0.15439
2159.99216	0.15418
2158.06360	0.15396
2156.13503	0.15353
2154.20647	0.15304
2152.27790	0.15266
2150.34934	0.15227
2148.42077	0.15184
2146.49221	0.15148
2144.56365	0.15119
2142.63508	0.15099
2140.70652	0.15081
2138.77795	0.15059
2136.84939	0.15043
2134.92082	0.15035
2132.99226	0.15019
2131.06369	0.14983
2129.13513	0.14936
2127.20657	0.14892
2125.27800	0.14841
2123.34944	0.14781
2121.42087	0.14725
2119.49231	0.14663
2117.56374	0.14592
2115.63518	0.14532
2113.70661	0.14484
2111.77805	0.14430
2109.84949	0.14359
2107.92092	0.14288
2105.99236	0.14234
2104.06379	0.14190
2102.13523	0.14146
2100.20666	0.14108
2098.27810	0.14066
2096.34953	0.14013
2094.42097	0.13976
2092.49241	0.13952
2090.56384	0.13915
2088.63528	0.13862
2086.70671	0.13810
2084.77815	0.13772
2082.84958	0.13735
2080.92102	0.13692
2078.99245	0.13649
2077.06389	0.13612
2075.13533	0.13575
2073.20676	0.13531
2071.27820	0.13485
2069.34963	0.13444
2067.42107	0.13411
2065.49250	0.13385
2063.56394	0.13349
2061.63537	0.13293
2059.70681	0.13230
2057.77825	0.13165
2055.84968	0.13098
2053.92112	0.13037
2051.99255	0.12983
2050.06399	0.12938
2048.13542	0.12893
2046.20686	0.12832
2044.27830	0.12767
2042.34973	0.12724
2040.42117	0.12692
2038.49260	0.12634
2036.56404	0.12560
2034.63547	0.12492
2032.70691	0.12430
2030.77834	0.12370
2028.84978	0.12317
2026.92122	0.12268
2024.99265	0.12219
2023.06409	0.12162
2021.13552	0.12082
2019.20696	0.11991
2017.27839	0.11926
2015.34983	0.11867
2013.42126	0.11786
2011.49270	0.11703
2009.56414	0.11634
2007.63557	0.11559
2005.70701	0.11469
2003.77844	0.11384
2001.84988	0.11305
1999.92131	0.11231
1997.99275	0.11157
1996.06418	0.11071
1994.13562	0.11000
1992.20706	0.10978
1990.27849	0.10952
1988.34993	0.10895
1986.42136	0.10834
1984.49280	0.10771
1982.56423	0.10715
1980.63567	0.10660
1978.70710	0.10594
1976.77854	0.10540
1974.84998	0.10508
1972.92141	0.10472
1970.99285	0.10403
1969.06428	0.10333
1967.13572	0.10310
1965.20715	0.10284
1963.27859	0.10224
1961.35002	0.10174
1959.42146	0.10133
1957.49290	0.10084
1955.56433	0.10047
1953.63577	0.10015
1951.70720	0.09973
1949.77864	0.09913
1947.85007	0.09835
1945.92151	0.09760
1943.99294	0.09746
1942.06438	0.09796
1940.13582	0.09798
1938.20725	0.09737
1936.27869	0.09679
1934.35012	0.09639
1932.42156	0.09616
1930.49299	0.09605
1928.56443	0.09590
1926.63586	0.09553
1924.70730	0.09525
1922.77874	0.09528
1920.85017	0.09488
1918.92161	0.09457
1916.99304	0.09493
1915.06448	0.09464
1913.13591	0.09371
1911.20735	0.09329
1909.27878	0.09345
1907.35022	0.09336
1905.42166	0.09293
1903.49309	0.09267
1901.56453	0.09245
1899.63596	0.09191
1897.70740	0.09129
1895.77883	0.09121
1893.85027	0.09114
1891.92171	0.09045
1889.99314	0.09024
1888.06458	0.09044
1886.13601	0.08993
1884.20745	0.08917
1882.27888	0.08869
1880.35032	0.08845
1878.42175	0.08826
1876.49319	0.08796
1874.56463	0.08750
1872.63606	0.08686
1870.70750	0.08681
1868.77893	0.08860
1866.85037	0.09034
1864.92180	0.09012
1862.99324	0.08943
1861.06467	0.08914
1859.13611	0.08908
1857.20755	0.08895
1855.27898	0.08863
1853.35042	0.08827
1851.42185	0.08792
1849.49329	0.08751
1847.56472	0.08696
1845.63616	0.08718
1843.70759	0.08878
1841.77903	0.08911
1839.85047	0.08801
1837.92190	0.08756
1835.99334	0.08786
1834.06477	0.08753
1832.13621	0.08706
1830.20764	0.08819
1828.27908	0.08967
1826.35051	0.08995
1824.42195	0.09037
1822.49339	0.09051
1820.56482	0.09003
1818.63626	0.08990
1816.70769	0.09004
1814.77913	0.08995
1812.85056	0.09006
1810.92200	0.09104
1808.99343	0.09211
1807.06487	0.09238
1805.13631	0.09224
1803.20774	0.09233
1801.27918	0.09356
1799.35061	0.09537
1797.42205	0.09599
1795.49348	0.09570
1793.56492	0.09650
1791.63635	0.09924
1789.70779	0.10026
1787.77923	0.09939
1785.85066	0.09886
1783.92210	0.09888
1781.99353	0.09918
1780.06497	0.09992
1778.13640	0.10002
1776.20784	0.09895
1774.27927	0.09852
1772.35071	0.10095
1770.42215	0.10391
1768.49358	0.10514
1766.56502	0.10558
1764.63645	0.10556
1762.70789	0.10694
1760.77932	0.11012
1758.85076	0.11258
1756.92220	0.11536
1754.99363	0.11794
1753.06507	0.11964
1751.13650	0.12387
1749.20794	0.13164
1747.27937	0.13804
1745.35081	0.14221
1743.42224	0.14589
1741.49368	0.15001
1739.56512	0.15426
1737.63655	0.15605
1735.70799	0.15681
1733.77942	0.16211
1731.85086	0.16724
1729.92229	0.16907
1727.99373	0.17086
1726.06516	0.17291
1724.13660	0.17617
1722.20804	0.17942
1720.27947	0.18179
1718.35091	0.18800
1716.42234	0.20187
1714.49378	0.21207
1712.56521	0.21817
1710.63665	0.22520
1708.70808	0.23443
1706.77952	0.24985
1704.85096	0.27145
1702.92239	0.29089
1700.99383	0.32042
1699.06526	0.37088
1697.13670	0.42084
1695.20813	0.47087
1693.27957	0.50745
1691.35100	0.53703
1689.42244	0.57545
1687.49388	0.61276
1685.56531	0.65293
1683.63675	0.72391
1681.70818	0.77966
1679.77962	0.81213
1677.85105	0.84383
1675.92249	0.88425
1673.99392	0.93088
1672.06536	0.96872
1670.13680	1.01249
1668.20823	1.06383
1666.27967	1.09418
1664.35110	1.12034
1662.42254	1.15868
1660.49397	1.19269
1658.56541	1.21248
1656.63684	1.22461
1654.70828	1.23865
1652.77972	1.26289
1650.85115	1.27232
1648.92259	1.27258
1646.99402	1.27444
1645.06546	1.27629
1643.13689	1.27412
1641.20833	1.27211
1639.27976	1.27061
1637.35120	1.27149
1635.42264	1.27573
1633.49407	1.27461
1631.56551	1.26905
1629.63694	1.25891
1627.70838	1.24470
1625.77981	1.22792
1623.85125	1.20222
1621.92269	1.16621
1619.99412	1.13387
1618.06556	1.09601
1616.13699	1.03980
1614.20843	0.99356
1612.27986	0.95835
1610.35130	0.92172
1608.42273	0.88434
1606.49417	0.85261
1604.56561	0.82806
1602.63704	0.80840
1600.70848	0.79302
1598.77991	0.78157
1596.85135	0.77343
1594.92278	0.76768
1592.99422	0.76362
1591.06565	0.76170
1589.13709	0.76250
1587.20853	0.76615
1585.27996	0.77264
1583.35140	0.78195
1581.42283	0.79263
1579.49427	0.80332
1577.56570	0.81867
1575.63714	0.84282
1573.70857	0.85885
1571.78001	0.86840
1569.85145	0.88536
1567.92288	0.90687
1565.99432	0.92454
1564.06575	0.94205
1562.13719	0.95604
1560.20862	0.97272
1558.28006	1.01570
1556.35149	1.04399
1554.42293	1.05784
1552.49437	1.06920
1550.56580	1.07713
1548.63724	1.08120
1546.70867	1.08157
1544.78011	1.08008
1542.85154	1.07796
1540.92298	1.07201
1538.99441	1.06188
1537.06585	1.05570
1535.13729	1.04800
1533.20872	1.03618
1531.28016	1.02524
1529.35159	1.01699
1527.42303	1.00822
1525.49446	0.99853
1523.56590	0.99128
1521.63733	0.98823
1519.70877	0.98851
1517.78021	0.98442
1515.85164	0.97217
1513.92308	0.95439
1511.99451	0.93340
1510.06595	0.91122
1508.13738	0.87842
1506.20882	0.82668
1504.28025	0.79804
1502.35169	0.77813
1500.42313	0.75527
1498.49456	0.72809
1496.56600	0.69851
1494.63743	0.67492
1492.70887	0.65742
1490.78030	0.63851
1488.85174	0.61660
1486.92317	0.60036
1484.99461	0.58946
1483.06605	0.58145
1481.13748	0.57609
1479.20892	0.57397
1477.28035	0.57609
1475.35179	0.58361
1473.42322	0.60013
1471.49466	0.62030
1469.56610	0.63094
1467.63753	0.63727
1465.70897	0.64618
1463.78040	0.65618
1461.85184	0.66130
1459.92327	0.66447
1457.99471	0.67411
1456.06614	0.68825
1454.13758	0.69190
1452.20902	0.69147
1450.28045	0.69026
1448.35189	0.68834
1446.42332	0.68546
1444.49476	0.68142
1442.56619	0.67642
1440.63763	0.67091
1438.70906	0.66456
1436.78050	0.65585
1434.85194	0.64583
1432.92337	0.63701
1430.99481	0.62853
1429.06624	0.62067
1427.13768	0.61531
1425.20911	0.61266
1423.28055	0.61174
1421.35198	0.61180
1419.42342	0.61517
1417.49486	0.62079
1415.56629	0.62275
1413.63773	0.62304
1411.70916	0.62357
1409.78060	0.62384
1407.85203	0.62409
1405.92347	0.62611
1403.99490	0.62954
1402.06634	0.63171
1400.13778	0.63350
1398.20921	0.63630
1396.28065	0.63945
1394.35208	0.64239
1392.42352	0.64447
1390.49495	0.64693
1388.56639	0.65361
1386.63782	0.66617
1384.70926	0.67888
1382.78070	0.68958
1380.85213	0.69924
1378.92357	0.70556
1376.99500	0.70616
1375.06644	0.70079
1373.13787	0.69043
1371.20931	0.67745
1369.28074	0.66205
1367.35218	0.64487
1365.42362	0.62875
1363.49505	0.61379
1361.56649	0.60082
1359.63792	0.59175
1357.70936	0.58554
1355.78079	0.58105
1353.85223	0.57770
1351.92366	0.57518
1349.99510	0.57326
1348.06654	0.57145
1346.13797	0.56952
1344.20941	0.56788
1342.28084	0.56696
1340.35228	0.56754
1338.42371	0.57004
1336.49515	0.57333
1334.56659	0.57737
1332.63802	0.58289
1330.70946	0.58946
1328.78089	0.59570
1326.85233	0.60064
1324.92376	0.60416
1322.99520	0.60657
1321.06663	0.60869
1319.13807	0.61146
1317.20951	0.61452
1315.28094	0.61670
1313.35238	0.61820
1311.42381	0.61954
1309.49525	0.62049
1307.56668	0.62079
1305.63812	0.62045
1303.70955	0.61960
1301.78099	0.61812
1299.85243	0.61567
1297.92386	0.61205
1295.99530	0.60761
1294.06673	0.60350
1292.13817	0.60053
1290.20960	0.59877
1288.28104	0.59806
1286.35247	0.59807
1284.42391	0.59828
1282.49535	0.59844
1280.56678	0.59864
1278.63822	0.59941
1276.70965	0.60121
1274.78109	0.60398
1272.85252	0.60773
1270.92396	0.61251
1268.99539	0.61793
1267.06683	0.62344
1265.13827	0.62820
1263.20970	0.63177
1261.28114	0.63470
1259.35257	0.63739
1257.42401	0.63981
1255.49544	0.64221
1253.56688	0.64477
1251.63831	0.64758
1249.70975	0.65068
1247.78119	0.65383
1245.85262	0.65654
1243.92406	0.65833
1241.99549	0.65932
1240.06693	0.65994
1238.13836	0.65982
1236.20980	0.65835
1234.28123	0.65577
1232.35267	0.65233
1230.42411	0.64773
1228.49554	0.64162
1226.56698	0.63392
1224.63841	0.62510
1222.70985	0.61602
1220.78128	0.60693
1218.85272	0.59772
1216.92415	0.58916
1214.99559	0.58247
1213.06703	0.57831
1211.13846	0.57652
1209.20990	0.57602
1207.28133	0.57523
1205.35277	0.57243
1203.42420	0.56651
1201.49564	0.55812
1199.56708	0.54901
1197.63851	0.54014
1195.70995	0.53135
1193.78138	0.52281
1191.85282	0.51523
1189.92425	0.50894
1187.99569	0.50392
1186.06712	0.50007
1184.13856	0.49730
1182.21000	0.49602
1180.28143	0.49687
1178.35287	0.50017
1176.42430	0.50580
1174.49574	0.51321
1172.56717	0.52177
1170.63861	0.53159
1168.71004	0.54356
1166.78148	0.55825
1164.85292	0.57513
1162.92435	0.59268
1160.99579	0.60870
1159.06722	0.62019
1157.13866	0.62455
1155.21009	0.62167
1153.28153	0.61344
1151.35296	0.60159
1149.42440	0.58745
1147.49584	0.57275
1145.56727	0.55932
1143.63871	0.54834
1141.71014	0.54053
1139.78158	0.53665
1137.85301	0.53648
1135.92445	0.53866
1133.99588	0.54308
1132.06732	0.55095
1130.13876	0.56246
1128.21019	0.57639
1126.28163	0.59166
1124.35306	0.60757
1122.42450	0.62295
1120.49593	0.63707
1118.56737	0.64950
1116.63880	0.65873
1114.71024	0.66339
1112.78168	0.66397
1110.85311	0.66189
1108.92455	0.65822
1106.99598	0.65381
1105.06742	0.64926
1103.13885	0.64498
1101.21029	0.64141
1099.28172	0.63920
1097.35316	0.63909
1095.42460	0.64176
1093.49603	0.64790
1091.56747	0.65792
1089.63890	0.67209
1087.71034	0.69081
1085.78177	0.71373
1083.85321	0.73878
1081.92464	0.76303
1079.99608	0.78370
1078.06752	0.79809
1076.13895	0.80442
1074.21039	0.80332
1072.28182	0.79636
1070.35326	0.78458
1068.42469	0.76943
1066.49613	0.75351
1064.56756	0.73948
1062.63900	0.72784
1060.71044	0.71713
1058.78187	0.70628
1056.85331	0.69574
1054.92474	0.68702
1052.99618	0.68053
1051.06761	0.67520
1049.13905	0.67174
1047.21049	0.67205
1045.28192	0.67650
1043.35336	0.68427
1041.42479	0.69372
1039.49623	0.70304
1037.56766	0.71139
1035.63910	0.71852
1033.71053	0.72425
1031.78197	0.72799
1029.85341	0.72847
1027.92484	0.72492
1025.99628	0.71804
1024.06771	0.70888
1022.13915	0.69849
1020.21058	0.68846
1018.28202	0.67972
1016.35345	0.67160
1014.42489	0.66241
1012.49633	0.65050
1010.56776	0.63561
1008.63920	0.61851
1006.71063	0.59984
1004.78207	0.58080
1002.85350	0.56341
1000.92494	0.54846
998.99637	0.53552
997.06781	0.52445
995.13925	0.51491
993.21068	0.50587
991.28212	0.49623
989.35355	0.48524
987.42499	0.47281
985.49642	0.45984
983.56786	0.44773
981.63929	0.43727
979.71073	0.42846
977.78217	0.42062
975.85360	0.41306
973.92504	0.40515
971.99647	0.39579
970.06791	0.38474
968.13934	0.37324
966.21078	0.36259
964.28221	0.35374
962.35365	0.34786
960.42509	0.34624
958.49652	0.34907
956.56796	0.35384
954.63939	0.35626
952.71083	0.35389
950.78226	0.34738
948.85370	0.33849
946.92513	0.32925
944.99657	0.32165
943.06801	0.31658
941.13944	0.31328
939.21088	0.31067
937.28231	0.30869
935.35375	0.30772
933.42518	0.30753
931.49662	0.30762
929.56805	0.30794
927.63949	0.30879
925.71093	0.31026
923.78236	0.31218
921.85380	0.31395
919.92523	0.31483
917.99667	0.31470
916.06810	0.31397
914.13954	0.31297
912.21098	0.31229
910.28241	0.31262
908.35385	0.31416
906.42528	0.31663
904.49672	0.31965
902.56815	0.32296
900.63959	0.32616
898.71102	0.32850
896.78246	0.32954
894.85390	0.32953
892.92533	0.32866
890.99677	0.32703
889.06820	0.32494
887.13964	0.32278
885.21107	0.32093
883.28251	0.31958
881.35394	0.31867
879.42538	0.31820
877.49682	0.31795
875.56825	0.31765
873.63969	0.31764
871.71112	0.31809
869.78256	0.31854
867.85399	0.31900
865.92543	0.31966
863.99686	0.32055
862.06830	0.32192
860.13974	0.32370
858.21117	0.32557
856.28261	0.32757
854.35404	0.32961
852.42548	0.33129
850.49691	0.33247
848.56835	0.33290
846.63978	0.33237
844.71122	0.33161
842.78266	0.33145
840.85409	0.33171
838.92553	0.33170
836.99696	0.33158
835.06840	0.33217
833.13983	0.33335
831.21127	0.33429
829.28270	0.33517
827.35414	0.33665
825.42558	0.33874
823.49701	0.34118
821.56845	0.34353
819.63988	0.34564
817.71132	0.34807
815.78275	0.35111
813.85419	0.35425
811.92562	0.35728
809.99706	0.36019
808.06850	0.36252
806.13993	0.36407
804.21137	0.36529
802.28280	0.36658
800.35424	0.36817
798.42567	0.37018
796.49711	0.37211
794.56854	0.37380
792.63998	0.37573
790.71142	0.37823
788.78285	0.38153
786.85429	0.38565
784.92572	0.39018
782.99716	0.39461
781.06859	0.39868
779.14003	0.40249
777.21147	0.40645
775.28290	0.41071
773.35434	0.41474
771.42577	0.41806
769.49721	0.42094
767.56864	0.42379
765.64008	0.42671
763.71151	0.42955
761.78295	0.43222
759.85439	0.43499
757.92582	0.43804
755.99726	0.44103
754.06869	0.44388
752.14013	0.44663
750.21156	0.44886
748.28300	0.45068
746.35443	0.45247
744.42587	0.45412
742.49731	0.45597
740.56874	0.45806
738.64018	0.45937
736.71161	0.45983
734.78305	0.46032
732.85448	0.46121
730.92592	0.46300
728.99735	0.46557
727.06879	0.46767
725.14023	0.46921
723.21166	0.47124
721.28310	0.47417
719.35453	0.47688
717.42597	0.47816
715.49740	0.47930
713.56884	0.48167
711.64027	0.48463
709.71171	0.48762
707.78315	0.49070
705.85458	0.49386
703.92602	0.49727
701.99745	0.50029
700.06889	0.50224
698.14032	0.50328
696.21176	0.50380
694.28319	0.50452
692.35463	0.50616
690.42607	0.50804
688.49750	0.50908
686.56894	0.50908
684.64037	0.50876
682.71181	0.50938
680.78324	0.51090
678.85468	0.51229
676.92611	0.51298
674.99755	0.51264
673.06899	0.51208
671.14042	0.51312
669.21186	0.51862
667.28329	0.52642
665.35473	0.52816
663.42616	0.52742
661.49760	0.52702
659.56903	0.52751
657.64047	0.52942
655.71191	0.53273
653.78334	0.53571
651.85478	0.53673
649.92621	0.53711
647.99765	0.53862
646.06908	0.54064
644.14052	0.54315
642.21195	0.54683
640.28339	0.55121
638.35483	0.55542
636.42626	0.55831
634.49770	0.55912
632.56913	0.55907
630.64057	0.55927
628.71200	0.55967
626.78344	0.56146
624.85488	0.56573
622.92631	0.56977
620.99775	0.57085
619.06918	0.57058
617.14062	0.57153
615.21205	0.57351
613.28349	0.57506
611.35492	0.57536
609.42636	0.57397
607.49780	0.57158
605.56923	0.57075
603.64067	0.57277
601.71210	0.57504
599.78354	0.57495
