3997.91406	0.40216
3995.98550	0.40142
3994.05693	0.40118
3992.12837	0.40149
3990.19980	0.40205
3988.27124	0.40271
3986.34268	0.40337
3984.41411	0.40353
3982.48555	0.40337
3980.55698	0.40380
3978.62842	0.40426
3976.69985	0.40331
3974.77129	0.40147
3972.84272	0.40084
3970.91416	0.40184
3968.98560	0.40269
3967.05703	0.40239
3965.12847	0.40183
3963.19990	0.40156
3961.27134	0.40076
3959.34277	0.39926
3957.41421	0.39819
3955.48564	0.39825
3953.55708	0.39895
3951.62852	0.39923
3949.69995	0.39910
3947.77139	0.39902
3945.84282	0.39838
3943.91426	0.39726
3941.98569	0.39661
3940.05713	0.39639
3938.12856	0.39600
3936.20000	0.39571
3934.27144	0.39651
3932.34287	0.39783
3930.41431	0.39740
3928.48574	0.39534
3926.55718	0.39355
3924.62861	0.39304
3922.70005	0.39315
3920.77148	0.39316
3918.84292	0.39324
3916.91436	0.39300
3914.98579	0.39137
3913.05723	0.38919
3911.12866	0.38817
3909.20010	0.38737
3907.27153	0.38531
3905.34297	0.38366
3903.41440	0.38499
3901.48584	0.38783
3899.55728	0.38900
3897.62871	0.38752
3895.70015	0.38508
3893.77158	0.38426
3891.84302	0.38554
3889.91445	0.38476
3887.98589	0.38270
3886.05733	0.38331
3884.12876	0.38388
3882.20020	0.38268
3880.27163	0.38373
3878.34307	0.38383
3876.41450	0.38136
3874.48594	0.38003
3872.55737	0.38138
3870.62881	0.38510
3868.70025	0.38701
3866.77168	0.38459
3864.84312	0.38228
3862.91455	0.38097
3860.98599	0.37894
3859.05742	0.37716
3857.12886	0.37574
3855.20029	0.37700
3853.27173	0.38490
3851.34317	0.38618
3849.41460	0.38118
3847.48604	0.37625
3845.55747	0.37313
3843.62891	0.37283
3841.70034	0.37366
3839.77178	0.37356
3837.84321	0.37341
3835.91465	0.37361
3833.98609	0.37424
3832.05752	0.37509
3830.12896	0.37479
3828.20039	0.37391
3826.27183	0.37354
3824.34326	0.37289
3822.41470	0.37334
3820.48613	0.37405
3818.55757	0.37055
3816.62901	0.36875
3814.70044	0.37014
3812.77188	0.36904
3810.84331	0.36599
3808.91475	0.36431
3806.98618	0.36525
3805.05762	0.36437
3803.12905	0.36237
3801.20049	0.36482
3799.27193	0.36698
3797.34336	0.36641
3795.41480	0.36605
3793.48623	0.36531
3791.55767	0.36369
3789.62910	0.36187
3787.70054	0.36094
3785.77197	0.36172
3783.84341	0.36214
3781.91485	0.36083
3779.98628	0.36099
3778.05772	0.36341
3776.12915	0.36472
3774.20059	0.36415
3772.27202	0.36304
3770.34346	0.36376
3768.41489	0.36531
3766.48633	0.36543
3764.55777	0.36465
3762.62920	0.36286
3760.70064	0.36183
3758.77207	0.36318
3756.84351	0.36319
3754.91494	0.36046
3752.98638	0.35790
3751.05781	0.35951
3749.12925	0.36188
3747.20069	0.36112
3745.27212	0.36132
3743.34356	0.36193
3741.41499	0.36026
3739.48643	0.35788
3737.55786	0.35578
3735.62930	0.35586
3733.70074	0.35873
3731.77217	0.35883
3729.84361	0.35620
3727.91504	0.35457
3725.98648	0.35545
3724.05791	0.35664
3722.12935	0.35620
3720.20078	0.35486
3718.27222	0.35314
3716.34366	0.35077
3714.41509	0.34857
3712.48653	0.35026
3710.55796	0.35561
3708.62940	0.35657
3706.70083	0.35514
3704.77227	0.35407
3702.84370	0.35401
3700.91514	0.35471
3698.98658	0.35453
3697.05801	0.35360
3695.12945	0.35227
3693.20088	0.35059
3691.27232	0.35139
3689.34375	0.35907
3687.41519	0.36466
3685.48662	0.36379
3683.55806	0.36196
3681.62950	0.36112
3679.70093	0.36071
3677.77237	0.36187
3675.84380	0.36900
3673.91524	0.37494
3671.98667	0.37528
3670.05811	0.37737
3668.12954	0.37951
3666.20098	0.37967
3664.27242	0.38089
3662.34385	0.38332
3660.41529	0.38512
3658.48672	0.38675
3656.55816	0.39122
3654.62959	0.39555
3652.70103	0.39727
3650.77246	0.40218
3648.84390	0.41337
3646.91534	0.41829
3644.98677	0.41842
3643.05821	0.41935
3641.12964	0.42232
3639.20108	0.42629
3637.27251	0.42986
3635.34395	0.43317
3633.41538	0.43629
3631.48682	0.43906
3629.55826	0.44783
3627.62969	0.46154
3625.70113	0.46652
3623.77256	0.46758
3621.84400	0.46974
3619.91543	0.47565
3617.98687	0.48291
3616.05830	0.48707
3614.12974	0.49034
3612.20118	0.49369
3610.27261	0.49736
3608.34405	0.50435
3606.41548	0.51268
3604.48692	0.51782
3602.55835	0.52278
3600.62979	0.53055
3598.70123	0.53816
3596.77266	0.54405
3594.84410	0.55073
3592.91553	0.55667
3590.98697	0.55968
3589.05840	0.56460
3587.12984	0.57535
3585.20127	0.58379
3583.27271	0.58823
3581.34415	0.59297
3579.41558	0.59810
3577.48702	0.60262
3575.55845	0.60851
3573.62989	0.61648
3571.70132	0.62286
3569.77276	0.62681
3567.84419	0.63619
3565.91563	0.65166
3563.98707	0.65882
3562.05850	0.66204
3560.12994	0.66721
3558.20137	0.67248
3556.27281	0.67706
3554.34424	0.68416
3552.41568	0.69422
3550.48711	0.70140
3548.55855	0.70596
3546.62999	0.71393
3544.70142	0.72435
3542.77286	0.73126
3540.84429	0.73554
3538.91573	0.74090
3536.98716	0.74838
3535.05860	0.75657
3533.13003	0.76407
3531.20147	0.77190
3529.27291	0.78148
3527.34434	0.79118
3525.41578	0.79888
3523.48721	0.80543
3521.55865	0.81299
3519.63008	0.82244
3517.70152	0.83244
3515.77295	0.84213
3513.84439	0.85218
3511.91583	0.86122
3509.98726	0.86993
3508.05870	0.88099
3506.13013	0.89095
3504.20157	0.89856
3502.27300	0.90822
3500.34444	0.91967
3498.41587	0.92973
3496.48731	0.93933
3494.55875	0.94999
3492.63018	0.95917
3490.70162	0.96560
3488.77305	0.97339
3486.84449	0.98421
3484.91592	0.99231
3482.98736	0.99707
3481.05879	1.00418
3479.13023	1.01092
3477.20167	1.01423
3475.27310	1.01816
3473.34454	1.02412
3471.41597	1.02968
3469.48741	1.03491
3467.55884	1.04054
3465.63028	1.04421
3463.70171	1.04775
3461.77315	1.05653
3459.84459	1.06676
3457.91602	1.07213
3455.98746	1.07588
3454.05889	1.08120
3452.13033	1.08651
3450.20176	1.09176
3448.27320	1.09790
3446.34464	1.10575
3444.41607	1.11382
3442.48751	1.11903
3440.55894	1.12200
3438.63038	1.12520
3436.70181	1.12859
3434.77325	1.12966
3432.84468	1.12768
3430.91612	1.12522
3428.98756	1.12577
3427.05899	1.13205
3425.13043	1.14027
3423.20186	1.14323
3421.27330	1.14226
3419.34473	1.14286
3417.41617	1.14559
3415.48760	1.14898
3413.55904	1.15228
3411.63048	1.15667
3409.70191	1.16196
3407.77335	1.16426
3405.84478	1.16405
3403.91622	1.16627
3401.98765	1.17034
3400.05909	1.17174
3398.13052	1.17017
3396.20196	1.16877
3394.27340	1.16938
3392.34483	1.16999
3390.41627	1.16906
3388.48770	1.16969
3386.55914	1.17280
3384.63057	1.17651
3382.70201	1.18126
3380.77344	1.18603
3378.84488	1.18958
3376.91632	1.19399
3374.98775	1.19829
3373.05919	1.19887
3371.13062	1.19720
3369.20206	1.19753
3367.27349	1.20172
3365.34493	1.20720
3363.41636	1.20961
3361.48780	1.21144
3359.55924	1.21742
3357.63067	1.22405
3355.70211	1.22733
3353.77354	1.22933
3351.84498	1.23189
3349.91641	1.23561
3347.98785	1.24032
3346.05928	1.24369
3344.13072	1.24413
3342.20216	1.24266
3340.27359	1.24183
3338.34503	1.24481
3336.41646	1.25148
3334.48790	1.25774
3332.55933	1.26324
3330.63077	1.26988
3328.70220	1.27481
3326.77364	1.27562
3324.84508	1.27546
3322.91651	1.27913
3320.98795	1.28615
3319.05938	1.29179
3317.13082	1.29654
3315.20225	1.30469
3313.27369	1.31448
3311.34513	1.32040
3309.41656	1.32135
3307.48800	1.32120
3305.55943	1.32446
3303.63087	1.33012
3301.70230	1.33298
3299.77374	1.33116
3297.84517	1.32719
3295.91661	1.32557
3293.98805	1.32605
3292.05948	1.32457
3290.13092	1.32310
3288.20235	1.32490
3286.27379	1.32756
3284.34522	1.32892
3282.41666	1.32952
3280.48809	1.32773
3278.55953	1.32137
3276.63097	1.31351
3274.70240	1.30951
3272.77384	1.30792
3270.84527	1.30324
3268.91671	1.29822
3266.98814	1.29747
3265.05958	1.29763
3263.13101	1.29343
3261.20245	1.28529
3259.27389	1.27908
3257.34532	1.27596
3255.41676	1.26931
3253.48819	1.25707
3251.55963	1.24611
3249.63106	1.23989
3247.70250	1.23201
3245.77393	1.21831
3243.84537	1.20598
3241.91681	1.20107
3239.98824	1.19917
3238.05968	1.19498
3236.13111	1.18862
3234.20255	1.18061
3232.27398	1.17281
3230.34542	1.16775
3228.41685	1.16409
3226.48829	1.16137
3224.55973	1.15966
3222.63116	1.15596
3220.70260	1.14853
3218.77403	1.13968
3216.84547	1.13305
3214.91690	1.12996
3212.98834	1.12864
3211.05977	1.12670
3209.13121	1.12367
3207.20265	1.11962
3205.27408	1.11483
3203.34552	1.11091
3201.41695	1.10773
3199.48839	1.10165
3197.55982	1.09242
3195.63126	1.08678
3193.70269	1.08680
3191.77413	1.08518
3189.84557	1.07791
3187.91700	1.06945
3185.98844	1.06361
3184.05987	1.05862
3182.13131	1.05250
3180.20274	1.04635
3178.27418	1.04049
3176.34562	1.03469
3174.41705	1.03024
3172.48849	1.02706
3170.55992	1.02354
3168.63136	1.01943
3166.70279	1.01503
3164.77423	1.00960
3162.84566	1.00385
3160.91710	0.99942
3158.98854	0.99612
3157.05997	0.99376
3155.13141	0.99186
3153.20284	0.98898
3151.27428	0.98584
3149.34571	0.98396
3147.41715	0.98133
3145.48858	0.97621
3143.56002	0.97199
3141.63146	0.97054
3139.70289	0.96863
3137.77433	0.96509
3135.84576	0.96190
3133.91720	0.96075
3131.98863	0.96121
3130.06007	0.96047
3128.13150	0.95823
3126.20294	0.95656
3124.27438	0.95585
3122.34581	0.95521
3120.41725	0.95409
3118.48868	0.95301
3116.56012	0.95261
3114.63155	0.95276
3112.70299	0.95353
3110.77442	0.95423
3108.84586	0.95368
3106.91730	0.95231
3104.98873	0.95098
3103.06017	0.94935
3101.13160	0.94697
3099.20304	0.94459
3097.27447	0.94283
3095.34591	0.94042
3093.41734	0.93763
3091.48878	0.93646
3089.56022	0.93670
3087.63165	0.93713
3085.70309	0.93637
3083.77452	0.93340
3081.84596	0.92950
3079.91739	0.92614
3077.98883	0.92335
3076.06026	0.92100
3074.13170	0.91847
3072.20314	0.91451
3070.27457	0.90973
3068.34601	0.90639
3066.41744	0.90478
3064.48888	0.90245
3062.56031	0.89821
3060.63175	0.89356
3058.70318	0.88901
3056.77462	0.88434
3054.84606	0.88013
3052.91749	0.87566
3050.98893	0.87048
3049.06036	0.86526
3047.13180	0.85997
3045.20323	0.85506
3043.27467	0.85139
3041.34610	0.84897
3039.41754	0.84648
3037.48898	0.84228
3035.56041	0.83728
3033.63185	0.83336
3031.70328	0.82987
3029.77472	0.82607
3027.84615	0.82265
3025.91759	0.81943
3023.98903	0.81515
3022.06046	0.81003
3020.13190	0.80586
3018.20333	0.80338
3016.27477	0.80184
3014.34620	0.80063
3012.41764	0.79952
3010.48907	0.79753
3008.56051	0.79433
3006.63195	0.79159
3004.70338	0.78985
3002.77482	0.78801
3000.84625	0.78648
2998.91769	0.78643
2996.98912	0.78753
2995.06056	0.78891
2993.13199	0.79075
2991.20343	0.79359
2989.27487	0.79733
2987.34630	0.80176
2985.41774	0.80751
2983.48917	0.81506
2981.56061	0.82305
2979.63204	0.82989
2977.70348	0.83605
2975.77491	0.84213
2973.84635	0.84806
2971.91779	0.85544
2969.98922	0.86520
2968.06066	0.87466
2966.13209	0.88157
2964.20353	0.88689
2962.27496	0.89173
2960.34640	0.89511
2958.41783	0.89551
2956.48927	0.89251
2954.56071	0.88703
2952.63214	0.88082
2950.70358	0.87595
2948.77501	0.87448
2946.84645	0.87667
2944.91788	0.88130
2942.98932	0.88728
2941.06075	0.89403
2939.13219	0.90226
2937.20363	0.91175
2935.27506	0.92114
2933.34650	0.93010
2931.41793	0.93748
2929.48937	0.94280
2927.56080	0.94798
2925.63224	0.95298
2923.70367	0.95556
2921.77511	0.95513
2919.84655	0.95227
2917.91798	0.94627
2915.98942	0.93431
2914.06085	0.91563
2912.13229	0.89476
2910.20372	0.87685
2908.27516	0.86357
2906.34659	0.85349
2904.41803	0.84477
2902.48947	0.83745
2900.56090	0.83205
2898.63234	0.82799
2896.70377	0.82358
2894.77521	0.81825
2892.84664	0.81386
2890.91808	0.81070
2888.98952	0.80701
2887.06095	0.80271
2885.13239	0.79941
2883.20382	0.79799
2881.27526	0.79886
2879.34669	0.80099
2877.41813	0.80197
2875.48956	0.80144
2873.56100	0.79909
2871.63244	0.79385
2869.70387	0.78712
2867.77531	0.78041
2865.84674	0.77413
2863.91818	0.76923
2861.98961	0.76659
2860.06105	0.76680
2858.13248	0.77025
2856.20392	0.77601
2854.27536	0.78219
2852.34679	0.78664
2850.41823	0.78570
2848.48966	0.77487
2846.56110	0.75449
2844.63253	0.73174
2842.70397	0.71301
2840.77540	0.69923
2838.84684	0.68925
2836.91828	0.68203
2834.98971	0.67633
2833.06115	0.67138
2831.13258	0.66664
2829.20402	0.66144
2827.27545	0.65628
2825.34689	0.65180
2823.41832	0.64793
2821.48976	0.64514
2819.56120	0.64332
2817.63263	0.64085
2815.70407	0.63687
2813.77550	0.63269
2811.84694	0.62980
2809.91837	0.62753
2807.98981	0.62513
2806.06124	0.62280
2804.13268	0.62003
2802.20412	0.61661
2800.27555	0.61324
2798.34699	0.61025
2796.41842	0.60729
2794.48986	0.60416
2792.56129	0.60101
2790.63273	0.59791
2788.70416	0.59491
2786.77560	0.59215
2784.84704	0.58936
2782.91847	0.58641
2780.98991	0.58392
2779.06134	0.58191
2777.13278	0.57954
2775.20421	0.57666
2773.27565	0.57393
2771.34708	0.57186
2769.41852	0.57036
2767.48996	0.56882
2765.56139	0.56706
2763.63283	0.56573
2761.70426	0.56500
2759.77570	0.56397
2757.84713	0.56225
2755.91857	0.56037
2753.99001	0.55843
2752.06144	0.55648
2750.13288	0.55485
2748.20431	0.55341
2746.27575	0.55170
2744.34718	0.54946
2742.41862	0.54711
2740.49005	0.54548
2738.56149	0.54423
2736.63293	0.54277
2734.70436	0.54109
2732.77580	0.53912
2730.84723	0.53718
2728.91867	0.53592
2726.99010	0.53511
2725.06154	0.53422
2723.13297	0.53299
2721.20441	0.53148
2719.27585	0.53017
2717.34728	0.52951
2715.41872	0.52895
2713.49015	0.52766
2711.56159	0.52577
2709.63302	0.52399
2707.70446	0.52256
2705.77589	0.52135
2703.84733	0.52023
2701.91877	0.51894
2699.99020	0.51743
2698.06164	0.51576
2696.13307	0.51364
2694.20451	0.51109
2692.27594	0.50898
2690.34738	0.50741
2688.41881	0.50569
2686.49025	0.50379
2684.56169	0.50185
2682.63312	0.49987
2680.70456	0.49839
2678.77599	0.49730
2676.84743	0.49569
2674.91886	0.49377
2672.99030	0.49227
2671.06173	0.49090
2669.13317	0.48943
2667.20461	0.48826
2665.27604	0.48747
2663.34748	0.48671
2661.41891	0.48575
2659.49035	0.48477
2657.56178	0.48377
2655.63322	0.48247
2653.70465	0.48114
2651.77609	0.47978
2649.84753	0.47784
2647.91896	0.47558
2645.99040	0.47384
2644.06183	0.47250
2642.13327	0.47102
2640.20470	0.46956
2638.27614	0.46828
2636.34757	0.46683
2634.41901	0.46529
2632.49045	0.46403
2630.56188	0.46314
2628.63332	0.46245
2626.70475	0.46181
2624.77619	0.46100
2622.84762	0.45997
2620.91906	0.45910
2618.99049	0.45852
2617.06193	0.45795
2615.13337	0.45709
2613.20480	0.45606
2611.27624	0.45526
2609.34767	0.45446
2607.41911	0.45324
2605.49054	0.45196
2603.56198	0.45118
2601.63342	0.45035
2599.70485	0.44872
2597.77629	0.44668
2595.84772	0.44473
2593.91916	0.44268
2591.99059	0.44039
2590.06203	0.43840
2588.13346	0.43681
2586.20490	0.43502
2584.27634	0.43339
2582.34777	0.43249
2580.41921	0.43157
2578.49064	0.43015
2576.56208	0.42867
2574.63351	0.42728
2572.70495	0.42630
2570.77638	0.42612
2568.84782	0.42604
2566.91926	0.42537
2564.99069	0.42439
2563.06213	0.42327
2561.13356	0.42191
2559.20500	0.42072
2557.27643	0.42001
2555.34787	0.41915
2553.41930	0.41761
2551.49074	0.41586
2549.56218	0.41435
2547.63361	0.41301
2545.70505	0.41197
2543.77648	0.41124
2541.84792	0.41034
2539.91935	0.40884
2537.99079	0.40694
2536.06222	0.40536
2534.13366	0.40439
2532.20510	0.40358
2530.27653	0.40267
2528.34797	0.40172
2526.41940	0.40085
2524.49084	0.40014
2522.56227	0.39963
2520.63371	0.39938
2518.70514	0.39917
2516.77658	0.39878
2514.84802	0.39833
2512.91945	0.39788
2510.99089	0.39721
2509.06232	0.39600
2507.13376	0.39449
2505.20519	0.39332
2503.27663	0.39241
2501.34806	0.39149
2499.41950	0.39042
2497.49094	0.38878
2495.56237	0.38649
2493.63381	0.38414
2491.70524	0.38248
2489.77668	0.38155
2487.84811	0.38062
2485.91955	0.37928
2483.99098	0.37783
2482.06242	0.37652
2480.13386	0.37515
2478.20529	0.37385
2476.27673	0.37289
2474.34816	0.37189
2472.41960	0.37064
2470.49103	0.36959
2468.56247	0.36882
2466.63391	0.36762
2464.70534	0.36586
2462.77678	0.36413
2460.84821	0.36273
2458.91965	0.36181
2456.99108	0.36111
2455.06252	0.35994
2453.13395	0.35834
2451.20539	0.35668
2449.27683	0.35513
2447.34826	0.35381
2445.41970	0.35256
2443.49113	0.35112
2441.56257	0.34968
2439.63400	0.34824
2437.70544	0.34670
2435.77687	0.34525
2433.84831	0.34408
2431.91975	0.34324
2429.99118	0.34260
2428.06262	0.34180
2426.13405	0.34092
2424.20549	0.34029
2422.27692	0.33956
2420.34836	0.33869
2418.41979	0.33816
2416.49123	0.33783
2414.56267	0.33721
2412.63410	0.33610
2410.70554	0.33494
2408.77697	0.33403
2406.84841	0.33298
2404.91984	0.33167
2402.99128	0.33047
2401.06271	0.32956
2399.13415	0.32880
2397.20559	0.32771
2395.27702	0.32617
2393.34846	0.32502
2391.41989	0.32443
2389.49133	0.32365
2387.56276	0.32272
2385.63420	0.32192
2383.70563	0.32071
2381.77707	0.31863
2379.84851	0.31642
2377.91994	0.31471
2375.99138	0.31274
2374.06281	0.31054
2372.13425	0.30948
2370.20568	0.30995
2368.27712	0.31097
2366.34855	0.31087
2364.41999	0.30786
2362.49143	0.30312
2360.56286	0.30121
2358.63430	0.30349
2356.70573	0.30570
2354.77717	0.30556
2352.84860	0.30486
2350.92004	0.30383
2348.99147	0.30214
2347.06291	0.30024
2345.13435	0.29854
2343.20578	0.29821
2341.27722	0.29923
2339.34865	0.29874
2337.42009	0.29704
2335.49152	0.29691
2333.56296	0.29781
2331.63440	0.29768
2329.70583	0.29692
2327.77727	0.29653
2325.84870	0.29593
2323.92014	0.29501
2321.99157	0.29456
2320.06301	0.29482
2318.13444	0.29539
2316.20588	0.29578
2314.27732	0.29565
2312.34875	0.29519
2310.42019	0.29482
2308.49162	0.29454
2306.56306	0.29426
2304.63449	0.29389
2302.70593	0.29337
2300.77736	0.29295
2298.84880	0.29253
2296.92024	0.29175
2294.99167	0.29088
2293.06311	0.29041
2291.13454	0.29034
2289.20598	0.29047
2287.27741	0.29054
2285.34885	0.29040
2283.42028	0.29006
2281.49172	0.28950
2279.56316	0.28886
2277.63459	0.28833
2275.70603	0.28807
2273.77746	0.28806
2271.84890	0.28798
2269.92033	0.28761
2267.99177	0.28701
2266.06320	0.28623
2264.13464	0.28537
2262.20608	0.28460
2260.27751	0.28390
2258.34895	0.28309
2256.42038	0.28217
2254.49182	0.28134
2252.56325	0.28062
2250.63469	0.27980
2248.70612	0.27883
2246.77756	0.27788
2244.84900	0.27718
2242.92043	0.27683
2240.99187	0.27673
2239.06330	0.27673
2237.13474	0.27673
2235.20617	0.27669
2233.27761	0.27671
2231.34904	0.27696
2229.42048	0.27718
2227.49192	0.27699
2225.56335	0.27672
2223.63479	0.27680
2221.70622	0.27694
2219.77766	0.27668
2217.84909	0.27624
2215.92053	0.27598
2213.99196	0.27556
2212.06340	0.27472
2210.13484	0.27378
2208.20627	0.27295
2206.27771	0.27212
2204.34914	0.27135
2202.42058	0.27060
2200.49201	0.26983
2198.56345	0.26927
2196.63488	0.26890
2194.70632	0.26839
2192.77776	0.26777
2190.84919	0.26743
2188.92063	0.26761
2186.99206	0.26806
2185.06350	0.26842
2183.13493	0.26861
2181.20637	0.26883
2179.27781	0.26902
2177.34924	0.26911
2175.42068	0.26929
2173.49211	0.26942
2171.56355	0.26917
2169.63498	0.26877
2167.70642	0.26874
2165.77785	0.26872
2163.84929	0.26826
2161.92073	0.26764
2159.99216	0.26704
2158.06360	0.26630
2156.13503	0.26544
2154.20647	0.26467
2152.27790	0.26425
2150.34934	0.26415
2148.42077	0.26411
2146.49221	0.26411
2144.56365	0.26425
2142.63508	0.26445
2140.70652	0.26472
2138.77795	0.26515
2136.84939	0.26560
2134.92082	0.26610
2132.99226	0.26666
2131.06369	0.26714
2129.13513	0.26749
2127.20657	0.26772
2125.27800	0.26774
2123.34944	0.26752
2121.42087	0.26709
2119.49231	0.26647
2117.56374	0.26578
2115.63518	0.26510
2113.70661	0.26423
2111.77805	0.26295
2109.84949	0.26144
2107.92092	0.26002
2105.99236	0.25888
2104.06379	0.25786
2102.13523	0.25682
2100.20666	0.25599
2098.27810	0.25543
2096.34953	0.25491
2094.42097	0.25457
2092.49241	0.25459
2090.56384	0.25467
2088.63528	0.25452
2086.70671	0.25434
2084.77815	0.25463
2082.84958	0.25527
2080.92102	0.25568
2078.99245	0.25577
2077.06389	0.25575
2075.13533	0.25567
2073.20676	0.25550
2071.27820	0.25525
2069.34963	0.25497
2067.42107	0.25476
2065.49250	0.25462
2063.56394	0.25427
2061.63537	0.25350
2059.70681	0.25286
2057.77825	0.25265
2055.84968	0.25243
2053.92112	0.25207
2051.99255	0.25196
2050.06399	0.25222
2048.13542	0.25252
2046.20686	0.25255
2044.27830	0.25258
2042.34973	0.25297
2040.42117	0.25353
2038.49260	0.25394
2036.56404	0.25424
2034.63547	0.25436
2032.70691	0.25416
2030.77834	0.25381
2028.84978	0.25344
2026.92122	0.25303
2024.99265	0.25242
2023.06409	0.25148
2021.13552	0.25023
2019.20696	0.24871
2017.27839	0.24713
2015.34983	0.24563
2013.42126	0.24421
2011.49270	0.24287
2009.56414	0.24161
2007.63557	0.24032
2005.70701	0.23897
2003.77844	0.23782
2001.84988	0.23718
1999.92131	0.23691
1997.99275	0.23659
1996.06418	0.23606
1994.13562	0.23572
1992.20706	0.23575
1990.27849	0.23587
1988.34993	0.23587
1986.42136	0.23572
1984.49280	0.23550
1982.56423	0.23540
1980.63567	0.23518
1978.70710	0.23465
1976.77854	0.23410
1974.84998	0.23369
1972.92141	0.23320
1970.99285	0.23250
1969.06428	0.23192
1967.13572	0.23161
1965.20715	0.23116
1963.27859	0.23043
1961.35002	0.22972
1959.42146	0.22921
1957.49290	0.22891
1955.56433	0.22876
1953.63577	0.22861
1951.70720	0.22842
1949.77864	0.22832
1947.85007	0.22835
1945.92151	0.22849
1943.99294	0.22891
1942.06438	0.22961
1940.13582	0.22988
1938.20725	0.22966
1936.27869	0.22941
1934.35012	0.22916
1932.42156	0.22874
1930.49299	0.22810
1928.56443	0.22716
1926.63586	0.22598
1924.70730	0.22482
1922.77874	0.22367
1920.85017	0.22220
1918.92161	0.22076
1916.99304	0.21944
1915.06448	0.21776
1913.13591	0.21605
1911.20735	0.21489
1909.27878	0.21430
1907.35022	0.21381
1905.42166	0.21340
1903.49309	0.21333
1901.56453	0.21340
1899.63596	0.21337
1897.70740	0.21329
1895.77883	0.21356
1893.85027	0.21414
1891.92171	0.21464
1889.99314	0.21538
1888.06458	0.21623
1886.13601	0.21647
1884.20745	0.21637
1882.27888	0.21624
1880.35032	0.21594
1878.42175	0.21528
1876.49319	0.21447
1874.56463	0.21363
1872.63606	0.21259
1870.70750	0.21165
1868.77893	0.21143
1866.85037	0.21109
1864.92180	0.20992
1862.99324	0.20879
1861.06467	0.20809
1859.13611	0.20759
1857.20755	0.20710
1855.27898	0.20673
1853.35042	0.20660
1851.42185	0.20670
1849.49329	0.20699
1847.56472	0.20731
1845.63616	0.20817
1843.70759	0.20999
1841.77903	0.21088
1839.85047	0.21065
1837.92190	0.21079
1835.99334	0.21144
1834.06477	0.21152
1832.13621	0.21120
1830.20764	0.21162
1828.27908	0.21214
1826.35051	0.21196
1824.42195	0.21184
1822.49339	0.21165
1820.56482	0.21125
1818.63626	0.21104
1816.70769	0.21091
1814.77913	0.21062
1812.85056	0.21051
1810.92200	0.21117
1808.99343	0.21216
1807.06487	0.21264
1805.13631	0.21282
1803.20774	0.21322
1801.27918	0.21448
1799.35061	0.21637
1797.42205	0.21779
1795.49348	0.21852
1793.56492	0.21974
1791.63635	0.22263
1789.70779	0.22471
1787.77923	0.22527
1785.85066	0.22577
1783.92210	0.22645
1781.99353	0.22730
1780.06497	0.22856
1778.13640	0.22940
1776.20784	0.22940
1774.27927	0.22985
1772.35071	0.23195
1770.42215	0.23385
1768.49358	0.23457
1766.56502	0.23505
1764.63645	0.23555
1762.70789	0.23723
1760.77932	0.24034
1758.85076	0.24328
1756.92220	0.24697
1754.99363	0.25088
1753.06507	0.25435
1751.13650	0.26028
1749.20794	0.26941
1747.27937	0.27739
1745.35081	0.28363
1743.42224	0.28966
1741.49368	0.29612
1739.56512	0.30281
1737.63655	0.30740
1735.70799	0.31108
1733.77942	0.31932
1731.85086	0.32780
1729.92229	0.33325
1727.99373	0.33863
1726.06516	0.34431
1724.13660	0.35165
1722.20804	0.35943
1720.27947	0.36629
1718.35091	0.37717
1716.42234	0.39684
1714.49378	0.41304
1712.56521	0.42467
1710.63665	0.43728
1708.70808	0.45243
1706.77952	0.47447
1704.85096	0.50298
1702.92239	0.52828
1700.99383	0.56453
1699.06526	0.62412
1697.13670	0.68182
1695.20813	0.74027
1693.27957	0.78493
1691.35100	0.82128
1689.42244	0.86664
1687.49388	0.90958
1685.56531	0.95313
1683.63675	1.02464
1681.70818	1.07856
1679.77962	1.10711
1677.85105	1.13219
1675.92249	1.16337
1673.99392	1.20121
1672.06536	1.23392
1670.13680	1.26346
1668.20823	1.28476
1666.27967	1.29095
1664.35110	1.29681
1662.42254	1.30809
1660.49397	1.31669
1658.56541	1.32009
1656.63684	1.31902
1654.70828	1.31423
1652.77972	1.30646
1650.85115	1.30319
1648.92259	1.30142
1646.99402	1.29669
1645.06546	1.29085
1643.13689	1.28592
1641.20833	1.28213
1639.27976	1.27810
1637.35120	1.27243
1635.42264	1.26315
1633.49407	1.25494
1631.56551	1.24878
1629.63694	1.23949
1627.70838	1.22632
1625.77981	1.21121
1623.85125	1.19234
1621.92269	1.17070
1619.99412	1.15257
1618.06556	1.13169
1616.13699	1.10036
1614.20843	1.07309
1612.27986	1.05111
1610.35130	1.02775
1608.42273	1.00260
1606.49417	0.98043
1604.56561	0.96444
1602.63704	0.95253
1600.70848	0.94280
1598.77991	0.93516
1596.85135	0.93026
1594.92278	0.92809
1592.99422	0.92713
1591.06565	0.92701
1589.13709	0.92916
1587.20853	0.93441
1585.27996	0.94251
1583.35140	0.95301
1581.42283	0.96387
1579.49427	0.97340
1577.56570	0.98693
1575.63714	1.01047
1573.70857	1.02745
1571.78001	1.03725
1569.85145	1.05224
1567.92288	1.07016
1565.99432	1.08413
1564.06575	1.09667
1562.13719	1.10505
1560.20862	1.11494
1558.28006	1.14636
1556.35149	1.16618
1554.42293	1.17263
1552.49437	1.17700
1550.56580	1.17870
1548.63724	1.17652
1546.70867	1.17303
1544.78011	1.17020
1542.85154	1.16550
1540.92298	1.15437
1538.99441	1.14137
1537.06585	1.13324
1535.13729	1.12409
1533.20872	1.11251
1531.28016	1.10231
1529.35159	1.09315
1527.42303	1.08218
1525.49446	1.07199
1523.56590	1.06648
1521.63733	1.06236
1519.70877	1.05779
1517.78021	1.04921
1515.85164	1.03311
1513.92308	1.01415
1511.99451	0.99521
1510.06595	0.97712
1508.13738	0.95113
1506.20882	0.90623
1504.28025	0.88055
1502.35169	0.86418
1500.42313	0.84613
1498.49456	0.82404
1496.56600	0.79857
1494.63743	0.77840
1492.70887	0.76424
1490.78030	0.74885
1488.85174	0.73007
1486.92317	0.71626
1484.99461	0.70806
1483.06605	0.70331
1481.13748	0.70175
1479.20892	0.70342
1477.28035	0.70886
1475.35179	0.71945
1473.42322	0.73876
1471.49466	0.76047
1469.56610	0.77177
1467.63753	0.77872
1465.70897	0.78822
1463.78040	0.79916
1461.85184	0.80539
1459.92327	0.80891
1457.99471	0.81778
1456.06614	0.83136
1454.13758	0.83462
1452.20902	0.83295
1450.28045	0.83097
1448.35189	0.82923
1446.42332	0.82638
1444.49476	0.82277
1442.56619	0.81875
1440.63763	0.81407
1438.70906	0.80933
1436.78050	0.80384
1434.85194	0.79619
1432.92337	0.78819
1430.99481	0.78134
1429.06624	0.77708
1427.13768	0.77607
1425.20911	0.77760
1423.28055	0.78056
1421.35198	0.78394
1419.42342	0.79001
1417.49486	0.79757
1415.56629	0.80124
1413.63773	0.80337
1411.70916	0.80594
1409.78060	0.80842
1407.85203	0.81035
1405.92347	0.81261
1403.99490	0.81483
1402.06634	0.81583
1400.13778	0.81678
1398.20921	0.81785
1396.28065	0.81769
1394.35208	0.81675
1392.42352	0.81604
1390.49495	0.81652
1388.56639	0.82050
1386.63782	0.82872
1384.70926	0.83682
1382.78070	0.84301
1380.85213	0.84741
1378.92357	0.84841
1376.99500	0.84508
1375.06644	0.83694
1373.13787	0.82408
1371.20931	0.80956
1369.28074	0.79389
1367.35218	0.77760
1365.42362	0.76295
1363.49505	0.74907
1361.56649	0.73725
1359.63792	0.73060
1357.70936	0.72747
1355.78079	0.72591
1353.85223	0.72550
1351.92366	0.72600
1349.99510	0.72672
1348.06654	0.72704
1346.13797	0.72704
1344.20941	0.72730
1342.28084	0.72827
1340.35228	0.73055
1338.42371	0.73390
1336.49515	0.73731
1334.56659	0.74158
1332.63802	0.74738
1330.70946	0.75374
1328.78089	0.75957
1326.85233	0.76430
1324.92376	0.76745
1322.99520	0.76974
1321.06663	0.77252
1319.13807	0.77595
1317.20951	0.77928
1315.28094	0.78213
1313.35238	0.78456
1311.42381	0.78613
1309.49525	0.78677
1307.56668	0.78722
1305.63812	0.78743
1303.70955	0.78678
1301.78099	0.78516
1299.85243	0.78225
1297.92386	0.77734
1295.99530	0.77113
1294.06673	0.76526
1292.13817	0.76044
1290.20960	0.75698
1288.28104	0.75495
1286.35247	0.75349
1284.42391	0.75200
1282.49535	0.75090
1280.56678	0.75055
1278.63822	0.75113
1276.70965	0.75291
1274.78109	0.75593
1272.85252	0.76007
1270.92396	0.76511
1268.99539	0.77083
1267.06683	0.77712
1265.13827	0.78322
1263.20970	0.78803
1261.28114	0.79131
1259.35257	0.79341
1257.42401	0.79519
1255.49544	0.79744
1253.56688	0.79958
1251.63831	0.80104
1249.70975	0.80237
1247.78119	0.80361
1245.85262	0.80436
1243.92406	0.80464
1241.99549	0.80479
1240.06693	0.80473
1238.13836	0.80401
1236.20980	0.80252
1234.28123	0.80018
1232.35267	0.79678
1230.42411	0.79250
1228.49554	0.78778
1226.56698	0.78293
1224.63841	0.77754
1222.70985	0.77096
1220.78128	0.76373
1218.85272	0.75696
1216.92415	0.75141
1214.99559	0.74774
1213.06703	0.74596
1211.13846	0.74535
1209.20990	0.74487
1207.28133	0.74284
1205.35277	0.73789
1203.42420	0.72981
1201.49564	0.71942
1199.56708	0.70807
1197.63851	0.69639
1195.70995	0.68446
1193.78138	0.67294
1191.85282	0.66227
1189.92425	0.65264
1187.99569	0.64517
1186.06712	0.64063
1184.13856	0.63832
1182.21000	0.63809
1180.28143	0.64088
1178.35287	0.64712
1176.42430	0.65648
1174.49574	0.66842
1172.56717	0.68253
1170.63861	0.69892
1168.71004	0.71785
1166.78148	0.73920
1164.85292	0.76209
1162.92435	0.78464
1160.99579	0.80457
1159.06722	0.81938
1157.13866	0.82690
1155.21009	0.82711
1153.28153	0.82154
1151.35296	0.81169
1149.42440	0.79961
1147.49584	0.78734
1145.56727	0.77557
1143.63871	0.76521
1141.71014	0.75816
1139.78158	0.75513
1137.85301	0.75547
1135.92445	0.75904
1133.99588	0.76653
1132.06732	0.77776
1130.13876	0.79164
1128.21019	0.80767
1126.28163	0.82527
1124.35306	0.84256
1122.42450	0.85858
1120.49593	0.87457
1118.56737	0.89023
1116.63880	0.90248
1114.71024	0.91016
1112.78168	0.91442
1110.85311	0.91564
1108.92455	0.91412
1106.99598	0.91135
1105.06742	0.90835
1103.13885	0.90443
1101.21029	0.89978
1099.28172	0.89664
1097.35316	0.89548
1095.42460	0.89527
1093.49603	0.89755
1091.56747	0.90494
1089.63890	0.91827
1087.71034	0.93710
1085.78177	0.95962
1083.85321	0.98221
1081.92464	1.00149
1079.99608	1.01521
1078.06752	1.02073
1076.13895	1.01754
1074.21039	1.00960
1072.28182	1.00042
1070.35326	0.99104
1068.42469	0.98248
1066.49613	0.97493
1064.56756	0.96835
1062.63900	0.96399
1060.71044	0.96236
1058.78187	0.96188
1056.85331	0.96076
1054.92474	0.95927
1052.99618	0.95907
1051.06761	0.95991
1049.13905	0.95993
1047.21049	0.95897
1045.28192	0.95796
1043.35336	0.95766
1041.42479	0.95851
1039.49623	0.95984
1037.56766	0.96102
1035.63910	0.96159
1033.71053	0.96034
1031.78197	0.95657
1029.85341	0.94990
1027.92484	0.94013
1025.99628	0.92819
1024.06771	0.91566
1022.13915	0.90440
1020.21058	0.89495
1018.28202	0.88551
1016.35345	0.87501
1014.42489	0.86395
1012.49633	0.85160
1010.56776	0.83645
1008.63920	0.81826
1006.71063	0.79837
1004.78207	0.77869
1002.85350	0.76042
1000.92494	0.74397
998.99637	0.72967
997.06781	0.71737
995.13925	0.70567
993.21068	0.69246
991.28212	0.67620
989.35355	0.65670
987.42499	0.63514
985.49642	0.61301
983.56786	0.59164
981.63929	0.57265
979.71073	0.55700
977.78217	0.54430
975.85360	0.53352
973.92504	0.52375
971.99647	0.51478
970.06791	0.50689
968.13934	0.50057
966.21078	0.49663
964.28221	0.49590
962.35365	0.49962
960.42509	0.50906
958.49652	0.52355
956.56796	0.53920
954.63939	0.55103
952.71083	0.55655
950.78226	0.55658
948.85370	0.55336
946.92513	0.54895
944.99657	0.54445
943.06801	0.53970
941.13944	0.53402
939.21088	0.52761
937.28231	0.52125
935.35375	0.51493
933.42518	0.50856
931.49662	0.50292
929.56805	0.49859
927.63949	0.49562
925.71093	0.49422
923.78236	0.49437
921.85380	0.49527
919.92523	0.49604
917.99667	0.49640
916.06810	0.49703
914.13954	0.49859
912.21098	0.50084
910.28241	0.50367
908.35385	0.50742
906.42528	0.51205
904.49672	0.51686
902.56815	0.52064
900.63959	0.52240
898.71102	0.52180
896.78246	0.51905
894.85390	0.51411
892.92533	0.50698
890.99677	0.49851
889.06820	0.48961
887.13964	0.48078
885.21107	0.47264
883.28251	0.46564
881.35394	0.45979
879.42538	0.45535
877.49682	0.45262
875.56825	0.45133
873.63969	0.45136
871.71112	0.45334
869.78256	0.45761
867.85399	0.46353
865.92543	0.47048
863.99686	0.47888
862.06830	0.48918
860.13974	0.50076
858.21117	0.51288
856.28261	0.52538
854.35404	0.53780
852.42548	0.54955
850.49691	0.56003
848.56835	0.56812
846.63978	0.57345
844.71122	0.57683
842.78266	0.57895
840.85409	0.58004
838.92553	0.58008
836.99696	0.57878
835.06840	0.57638
833.13983	0.57356
831.21127	0.57057
829.28270	0.56760
827.35414	0.56546
825.42558	0.56444
823.49701	0.56386
821.56845	0.56362
819.63988	0.56435
817.71132	0.56621
815.78275	0.56893
813.85419	0.57231
811.92562	0.57605
809.99706	0.57934
808.06850	0.58180
806.13993	0.58385
804.21137	0.58521
802.28280	0.58554
800.35424	0.58546
798.42567	0.58517
796.49711	0.58466
794.56854	0.58432
792.63998	0.58449
790.71142	0.58506
788.78285	0.58560
786.85429	0.58681
784.92572	0.58971
782.99716	0.59365
781.06859	0.59810
779.14003	0.60311
777.21147	0.60849
775.28290	0.61483
773.35434	0.62204
771.42577	0.62826
769.49721	0.63274
767.56864	0.63661
765.64008	0.64088
763.71151	0.64550
761.78295	0.64984
759.85439	0.65371
757.92582	0.65797
755.99726	0.66298
754.06869	0.66751
752.14013	0.67042
750.21156	0.67246
748.28300	0.67490
746.35443	0.67716
744.42587	0.67861
742.49731	0.67979
740.56874	0.68086
738.64018	0.68162
736.71161	0.68232
734.78305	0.68376
732.85448	0.68677
730.92592	0.69082
728.99735	0.69503
727.06879	0.69925
725.14023	0.70334
723.21166	0.70704
721.28310	0.71077
719.35453	0.71471
717.42597	0.71769
715.49740	0.72004
713.56884	0.72339
711.64027	0.72683
709.71171	0.72860
707.78315	0.72957
705.85458	0.73088
703.92602	0.73155
701.99745	0.73060
700.06889	0.72842
698.14032	0.72547
696.21176	0.72225
694.28319	0.71897
692.35463	0.71576
690.42607	0.71310
688.49750	0.71142
686.56894	0.71118
684.64037	0.71159
682.71181	0.71201
680.78324	0.71343
678.85468	0.71661
676.92611	0.72115
674.99755	0.72518
673.06899	0.72786
671.14042	0.73058
669.21186	0.73443
667.28329	0.73720
665.35473	0.73829
663.42616	0.73973
661.49760	0.74027
659.56903	0.73957
657.64047	0.74004
655.71191	0.74132
653.78334	0.74079
651.85478	0.73786
649.92621	0.73424
647.99765	0.73246
646.06908	0.73358
644.14052	0.73674
642.21195	0.74038
640.28339	0.74364
638.35483	0.74594
636.42626	0.74654
634.49770	0.74780
632.56913	0.75238
630.64057	0.75695
628.71200	0.75819
626.78344	0.75895
624.85488	0.76199
622.92631	0.76553
620.99775	0.76805
619.06918	0.77012
617.14062	0.77152
615.21205	0.77179
613.28349	0.77161
611.35492	0.77099
609.42636	0.77000
607.49780	0.76892
605.56923	0.76749
603.64067	0.76628
601.71210	0.76590
599.78354	0.76570
