3997.91406	0.69341
3995.98550	0.69263
3994.05693	0.69561
3992.12837	0.69959
3990.19980	0.69980
3988.27124	0.69775
3986.34268	0.69688
3984.41411	0.69596
3982.48555	0.69359
3980.55698	0.69176
3978.62842	0.69084
3976.69985	0.68941
3974.77129	0.68804
3972.84272	0.68700
3970.91416	0.68583
3968.98560	0.68596
3967.05703	0.68776
3965.12847	0.68927
3963.19990	0.68796
3961.27134	0.68355
3959.34277	0.68037
3957.41421	0.68025
3955.48564	0.68113
3953.55708	0.68226
3951.62852	0.68195
3949.69995	0.67896
3947.77139	0.67769
3945.84282	0.67971
3943.91426	0.68013
3941.98569	0.67814
3940.05713	0.67807
3938.12856	0.68014
3936.20000	0.68220
3934.27144	0.68226
3932.34287	0.67931
3930.41431	0.67689
3928.48574	0.67783
3926.55718	0.67907
3924.62861	0.67847
3922.70005	0.67912
3920.77148	0.68078
3918.84292	0.67901
3916.91436	0.67497
3914.98579	0.67365
3913.05723	0.67504
3911.12866	0.67753
3909.20010	0.68105
3907.27153	0.68343
3905.34297	0.67931
3903.41440	0.66977
3901.48584	0.66453
3899.55728	0.66381
3897.62871	0.66458
3895.70015	0.66678
3893.77158	0.66827
3891.84302	0.66546
3889.91445	0.66441
3887.98589	0.66886
3886.05733	0.67055
3884.12876	0.66689
3882.20020	0.66364
3880.27163	0.65968
3878.34307	0.65922
3876.41450	0.66266
3874.48594	0.66512
3872.55737	0.66677
3870.62881	0.66629
3868.70025	0.66396
3866.77168	0.66365
3864.84312	0.65928
3862.91455	0.65335
3860.98599	0.65564
3859.05742	0.66218
3857.12886	0.66995
3855.20029	0.67642
3853.27173	0.66719
3851.34317	0.65414
3849.41460	0.65210
3847.48604	0.65413
3845.55747	0.65739
3843.62891	0.66012
3841.70034	0.66058
3839.77178	0.65751
3837.84321	0.65199
3835.91465	0.64933
3833.98609	0.64801
3832.05752	0.64579
3830.12896	0.64527
3828.20039	0.64541
3826.27183	0.64421
3824.34326	0.64568
3822.41470	0.64862
3820.48613	0.64770
3818.55757	0.64679
3816.62901	0.64299
3814.70044	0.63849
3812.77188	0.64005
3810.84331	0.64377
3808.91475	0.64475
3806.98618	0.64198
3805.05762	0.64283
3803.12905	0.64451
3801.20049	0.63892
3799.27193	0.63593
3797.34336	0.63524
3795.41480	0.63377
3793.48623	0.63574
3791.55767	0.63862
3789.62910	0.63935
3787.70054	0.63830
3785.77197	0.63553
3783.84341	0.63370
3781.91485	0.63457
3779.98628	0.63315
3778.05772	0.62940
3776.12915	0.62972
3774.20059	0.63335
3772.27202	0.63611
3770.34346	0.63512
3768.41489	0.63397
3766.48633	0.63438
3764.55777	0.63326
3762.62920	0.63341
3760.70064	0.63492
3758.77207	0.63396
3756.84351	0.63486
3754.91494	0.64145
3752.98638	0.64753
3751.05781	0.64033
3749.12925	0.63083
3747.20069	0.63100
3745.27212	0.62782
3743.34356	0.62363
3741.41499	0.62928
3739.48643	0.63927
3737.55786	0.64528
3735.62930	0.63801
3733.70074	0.62625
3731.77217	0.62406
3729.84361	0.62607
3727.91504	0.62731
3725.98648	0.62589
3724.05791	0.62324
3722.12935	0.62277
3720.20078	0.62623
3718.27222	0.63087
3716.34366	0.63484
3714.41509	0.64053
3712.48653	0.64415
3710.55796	0.63673
3708.62940	0.63005
3706.70083	0.63034
3704.77227	0.63254
3702.84370	0.63228
3700.91514	0.63125
3698.98658	0.63259
3697.05801	0.63372
3695.12945	0.63480
3693.20088	0.63884
3691.27232	0.64531
3689.34375	0.64390
3687.41519	0.63556
3685.48662	0.63337
3683.55806	0.63644
3681.62950	0.64217
3679.70093	0.65003
3677.77237	0.65771
3675.84380	0.65618
3673.91524	0.65181
3671.98667	0.65398
3670.05811	0.65197
3668.12954	0.64929
3666.20098	0.65432
3664.27242	0.66245
3662.34385	0.67009
3660.41529	0.67660
3658.48672	0.68154
3656.55816	0.68401
3654.62959	0.68891
3652.70103	0.70002
3650.77246	0.71066
3648.84390	0.70647
3646.91534	0.70422
3644.98677	0.71267
3643.05821	0.72187
3641.12964	0.72752
3639.20108	0.73186
3637.27251	0.73751
3635.34395	0.74293
3633.41538	0.74912
3631.48682	0.75728
3629.55826	0.75858
3627.62969	0.75408
3625.70113	0.76053
3623.77256	0.77160
3621.84400	0.78099
3619.91543	0.78657
3617.98687	0.78927
3616.05830	0.79307
3614.12974	0.79745
3612.20118	0.80306
3610.27261	0.81146
3608.34405	0.81965
3606.41548	0.82652
3604.48692	0.83488
3602.55835	0.84486
3600.62979	0.85347
3598.70123	0.85860
3596.77266	0.86215
3594.84410	0.86579
3592.91553	0.87132
3590.98697	0.88000
3589.05840	0.88827
3587.12984	0.89283
3585.20127	0.90070
3583.27271	0.91194
3581.34415	0.92049
3579.41558	0.92431
3577.48702	0.92649
3575.55845	0.93015
3573.62989	0.93522
3571.70132	0.94187
3569.77276	0.94896
3567.84419	0.95325
3565.91563	0.95663
3563.98707	0.96414
3562.05850	0.97311
3560.12994	0.98007
3558.20137	0.98656
3556.27281	0.99526
3554.34424	1.00552
3552.41568	1.01368
3550.48711	1.01832
3548.55855	1.02533
3546.62999	1.03440
3544.70142	1.03832
3542.77286	1.04246
3540.84429	1.05130
3538.91573	1.05869
3536.98716	1.06229
3535.05860	1.06638
3533.13003	1.07407
3531.20147	1.08405
3529.27291	1.09176
3527.34434	1.09698
3525.41578	1.10353
3523.48721	1.11073
3521.55865	1.11759
3519.63008	1.12472
3517.70152	1.13283
3515.77295	1.14345
3513.84439	1.15356
3511.91583	1.15561
3509.98726	1.15370
3508.05870	1.16159
3506.13013	1.17760
3504.20157	1.19020
3502.27300	1.19678
3500.34444	1.20368
3498.41587	1.21141
3496.48731	1.21788
3494.55875	1.22660
3492.63018	1.23633
3490.70162	1.23900
3488.77305	1.23548
3486.84449	1.23604
3484.91592	1.24365
3482.98736	1.25187
3481.05879	1.25671
3479.13023	1.25908
3477.20167	1.25844
3475.27310	1.25607
3473.34454	1.25797
3471.41597	1.26496
3469.48741	1.27314
3467.55884	1.28122
3465.63028	1.28705
3463.70171	1.28964
3461.77315	1.29311
3459.84459	1.29656
3457.91602	1.29701
3455.98746	1.30002
3454.05889	1.30754
3452.13033	1.31255
3450.20176	1.31017
3448.27320	1.30334
3446.34464	1.30043
3444.41607	1.30409
3442.48751	1.31053
3440.55894	1.31563
3438.63038	1.31648
3436.70181	1.31807
3434.77325	1.32425
3432.84468	1.32589
3430.91612	1.31929
3428.98756	1.31504
3427.05899	1.31594
3425.13043	1.31704
3423.20186	1.31859
3421.27330	1.32003
3419.34473	1.31877
3417.41617	1.31869
3415.48760	1.32411
3413.55904	1.33054
3411.63048	1.33167
3409.70191	1.32941
3407.77335	1.32788
3405.84478	1.32752
3403.91622	1.32849
3401.98765	1.33020
3400.05909	1.32954
3398.13052	1.32893
3396.20196	1.33592
3394.27340	1.34728
3392.34483	1.34881
3390.41627	1.33888
3388.48770	1.33327
3386.55914	1.33936
3384.63057	1.34878
3382.70201	1.35218
3380.77344	1.34718
3378.84488	1.33808
3376.91632	1.33534
3374.98775	1.34291
3373.05919	1.35058
3371.13062	1.35215
3369.20206	1.35524
3367.27349	1.36188
3365.34493	1.36541
3363.41636	1.36765
3361.48780	1.37028
3359.55924	1.36791
3357.63067	1.36399
3355.70211	1.36169
3353.77354	1.35686
3351.84498	1.35488
3349.91641	1.36073
3347.98785	1.36512
3346.05928	1.36206
3344.13072	1.35982
3342.20216	1.36346
3340.27359	1.36604
3338.34503	1.36608
3336.41646	1.37115
3334.48790	1.38052
3332.55933	1.38422
3330.63077	1.37961
3328.70220	1.37472
3326.77364	1.37504
3324.84508	1.38037
3322.91651	1.38604
3320.98795	1.38584
3319.05938	1.38258
3317.13082	1.38266
3315.20225	1.38729
3313.27369	1.39509
3311.34513	1.40182
3309.41656	1.40293
3307.48800	1.40005
3305.55943	1.39860
3303.63087	1.40125
3301.70230	1.40644
3299.77374	1.41117
3297.84517	1.41695
3295.91661	1.42472
3293.98805	1.42979
3292.05948	1.43272
3290.13092	1.43320
3288.20235	1.42810
3286.27379	1.42226
3284.34522	1.41750
3282.41666	1.41436
3280.48809	1.41721
3278.55953	1.42170
3276.63097	1.42182
3274.70240	1.41743
3272.77384	1.40600
3270.84527	1.39066
3268.91671	1.38220
3266.98814	1.38236
3265.05958	1.38310
3263.13101	1.37757
3261.20245	1.36594
3259.27389	1.35686
3257.34532	1.35604
3255.41676	1.35771
3253.48819	1.35660
3251.55963	1.35382
3249.63106	1.34908
3247.70250	1.34087
3245.77393	1.33091
3243.84537	1.32182
3241.91681	1.31503
3239.98824	1.31273
3238.05968	1.31483
3236.13111	1.31565
3234.20255	1.30989
3232.27398	1.30089
3230.34542	1.29600
3228.41685	1.29419
3226.48829	1.29113
3224.55973	1.28948
3222.63116	1.29070
3220.70260	1.28915
3218.77403	1.28345
3216.84547	1.27840
3214.91690	1.27340
3212.98834	1.26887
3211.05977	1.26785
3209.13121	1.26555
3207.20265	1.25881
3205.27408	1.25156
3203.34552	1.24578
3201.41695	1.24181
3199.48839	1.24044
3197.55982	1.24020
3195.63126	1.23843
3193.70269	1.23559
3191.77413	1.23239
3189.84557	1.22718
3187.91700	1.22047
3185.98844	1.21641
3184.05987	1.21529
3182.13131	1.21282
3180.20274	1.20944
3178.27418	1.20792
3176.34562	1.20498
3174.41705	1.19688
3172.48849	1.18863
3170.55992	1.18410
3168.63136	1.17908
3166.70279	1.17401
3164.77423	1.17218
3162.84566	1.17155
3160.91710	1.16971
3158.98854	1.16601
3157.05997	1.16144
3155.13141	1.15746
3153.20284	1.15480
3151.27428	1.15427
3149.34571	1.15425
3147.41715	1.15148
3145.48858	1.14761
3143.56002	1.14720
3141.63146	1.14800
3139.70289	1.14546
3137.77433	1.14179
3135.84576	1.13957
3133.91720	1.13753
3131.98863	1.13419
3130.06007	1.12900
3128.13150	1.12411
3126.20294	1.12286
3124.27438	1.12380
3122.34581	1.12401
3120.41725	1.12361
3118.48868	1.12157
3116.56012	1.11892
3114.63155	1.12067
3112.70299	1.12601
3110.77442	1.12890
3108.84586	1.12724
3106.91730	1.12426
3104.98873	1.12280
3103.06017	1.12071
3101.13160	1.11660
3099.20304	1.11413
3097.27447	1.11467
3095.34591	1.11555
3093.41734	1.11418
3091.48878	1.11075
3089.56022	1.10841
3087.63165	1.10794
3085.70309	1.10663
3083.77452	1.10424
3081.84596	1.10148
3079.91739	1.09685
3077.98883	1.09168
3076.06026	1.08799
3074.13170	1.08451
3072.20314	1.08133
3070.27457	1.07940
3068.34601	1.07760
3066.41744	1.07421
3064.48888	1.06951
3062.56031	1.06500
3060.63175	1.06029
3058.70318	1.05457
3056.77462	1.04849
3054.84606	1.04355
3052.91749	1.04039
3050.98893	1.03738
3049.06036	1.03297
3047.13180	1.02797
3045.20323	1.02423
3043.27467	1.02248
3041.34610	1.02067
3039.41754	1.01717
3037.48898	1.01392
3035.56041	1.01130
3033.63185	1.00751
3031.70328	1.00410
3029.77472	1.00188
3027.84615	0.99819
3025.91759	0.99259
3023.98903	0.98730
3022.06046	0.98380
3020.13190	0.98192
3018.20333	0.98032
3016.27477	0.97738
3014.34620	0.97292
3012.41764	0.96819
3010.48907	0.96438
3008.56051	0.96198
3006.63195	0.95996
3004.70338	0.95745
3002.77482	0.95637
3000.84625	0.95710
2998.91769	0.95628
2996.98912	0.95413
2995.06056	0.95427
2993.13199	0.95647
2991.20343	0.95952
2989.27487	0.96330
2987.34630	0.96645
2985.41774	0.96956
2983.48917	0.97447
2981.56061	0.98039
2979.63204	0.98659
2977.70348	0.99364
2975.77491	1.00049
2973.84635	1.00640
2971.91779	1.01267
2969.98922	1.01953
2968.06066	1.02556
2966.13209	1.02954
2964.20353	1.03167
2962.27496	1.03292
2960.34640	1.03281
2958.41783	1.03065
2956.48927	1.02672
2954.56071	1.02116
2952.63214	1.01509
2950.70358	1.01006
2948.77501	1.00661
2946.84645	1.00591
2944.91788	1.00837
2942.98932	1.01259
2941.06075	1.01847
2939.13219	1.02508
2937.20363	1.03020
2935.27506	1.03530
2933.34650	1.04165
2931.41793	1.04640
2929.48937	1.04940
2927.56080	1.05308
2925.63224	1.05550
2923.70367	1.05497
2921.77511	1.05501
2919.84655	1.05687
2917.91798	1.05549
2915.98942	1.04721
2914.06085	1.03368
2912.13229	1.01742
2910.20372	1.00232
2908.27516	0.99263
2906.34659	0.98677
2904.41803	0.98069
2902.48947	0.97426
2900.56090	0.96911
2898.63234	0.96623
2896.70377	0.96481
2894.77521	0.96171
2892.84664	0.95630
2890.91808	0.95187
2888.98952	0.94958
2887.06095	0.94735
2885.13239	0.94421
2883.20382	0.94221
2881.27526	0.94267
2879.34669	0.94341
2877.41813	0.94305
2875.48956	0.94252
2873.56100	0.94042
2871.63244	0.93469
2869.70387	0.92645
2867.77531	0.91803
2865.84674	0.91132
2863.91818	0.90735
2861.98961	0.90517
2860.06105	0.90404
2858.13248	0.90452
2856.20392	0.90606
2854.27536	0.90843
2852.34679	0.91128
2850.41823	0.91104
2848.48966	0.90337
2846.56110	0.88824
2844.63253	0.87044
2842.70397	0.85506
2840.77540	0.84389
2838.84684	0.83589
2836.91828	0.82957
2834.98971	0.82401
2833.06115	0.81858
2831.13258	0.81340
2829.20402	0.80896
2827.27545	0.80536
2825.34689	0.80205
2823.41832	0.79839
2821.48976	0.79472
2819.56120	0.79103
2817.63263	0.78656
2815.70407	0.78191
2813.77550	0.77785
2811.84694	0.77372
2809.91837	0.76939
2807.98981	0.76570
2806.06124	0.76283
2804.13268	0.76025
2802.20412	0.75744
2800.27555	0.75394
2798.34699	0.75007
2796.41842	0.74697
2794.48986	0.74429
2792.56129	0.74065
2790.63273	0.73693
2788.70416	0.73474
2786.77560	0.73353
2784.84704	0.73194
2782.91847	0.72982
2780.98991	0.72805
2779.06134	0.72671
2777.13278	0.72508
2775.20421	0.72354
2773.27565	0.72226
2771.34708	0.72041
2769.41852	0.71781
2767.48996	0.71494
2765.56139	0.71208
2763.63283	0.70979
2761.70426	0.70830
2759.77570	0.70628
2757.84713	0.70274
2755.91857	0.69935
2753.99001	0.69721
2752.06144	0.69485
2750.13288	0.69169
2748.20431	0.68857
2746.27575	0.68565
2744.34718	0.68279
2742.41862	0.68014
2740.49005	0.67758
2738.56149	0.67516
2736.63293	0.67342
2734.70436	0.67212
2732.77580	0.67019
2730.84723	0.66794
2728.91867	0.66660
2726.99010	0.66527
2725.06154	0.66285
2723.13297	0.66042
2721.20441	0.65889
2719.27585	0.65841
2717.34728	0.65852
2715.41872	0.65766
2713.49015	0.65569
2711.56159	0.65378
2709.63302	0.65198
2707.70446	0.65022
2705.77589	0.64893
2703.84733	0.64785
2701.91877	0.64626
2699.99020	0.64384
2698.06164	0.64122
2696.13307	0.63918
2694.20451	0.63755
2692.27594	0.63606
2690.34738	0.63453
2688.41881	0.63267
2686.49025	0.63046
2684.56169	0.62803
2682.63312	0.62500
2680.70456	0.62133
2678.77599	0.61815
2676.84743	0.61599
2674.91886	0.61387
2672.99030	0.61181
2671.06173	0.61066
2669.13317	0.60962
2667.20461	0.60766
2665.27604	0.60533
2663.34748	0.60328
2661.41891	0.60186
2659.49035	0.60122
2657.56178	0.60061
2655.63322	0.59952
2653.70465	0.59853
2651.77609	0.59788
2649.84753	0.59706
2647.91896	0.59606
2645.99040	0.59511
2644.06183	0.59402
2642.13327	0.59277
2640.20470	0.59139
2638.27614	0.58956
2636.34757	0.58745
2634.41901	0.58542
2632.49045	0.58314
2630.56188	0.58087
2628.63332	0.57925
2626.70475	0.57772
2624.77619	0.57563
2622.84762	0.57337
2620.91906	0.57120
2618.99049	0.56886
2617.06193	0.56664
2615.13337	0.56488
2613.20480	0.56294
2611.27624	0.56048
2609.34767	0.55808
2607.41911	0.55625
2605.49054	0.55517
2603.56198	0.55465
2601.63342	0.55405
2599.70485	0.55299
2597.77629	0.55176
2595.84772	0.55081
2593.91916	0.55021
2591.99059	0.54975
2590.06203	0.54890
2588.13346	0.54749
2586.20490	0.54618
2584.27634	0.54532
2582.34777	0.54430
2580.41921	0.54250
2578.49064	0.54041
2576.56208	0.53872
2574.63351	0.53724
2572.70495	0.53568
2570.77638	0.53409
2568.84782	0.53229
2566.91926	0.53015
2564.99069	0.52811
2563.06213	0.52656
2561.13356	0.52499
2559.20500	0.52302
2557.27643	0.52113
2555.34787	0.51968
2553.41930	0.51835
2551.49074	0.51683
2549.56218	0.51512
2547.63361	0.51369
2545.70505	0.51314
2543.77648	0.51319
2541.84792	0.51304
2539.91935	0.51245
2537.99079	0.51169
2536.06222	0.51130
2534.13366	0.51133
2532.20510	0.51117
2530.27653	0.51050
2528.34797	0.50984
2526.41940	0.50958
2524.49084	0.50952
2522.56227	0.50924
2520.63371	0.50852
2518.70514	0.50741
2516.77658	0.50590
2514.84802	0.50420
2512.91945	0.50282
2510.99089	0.50165
2509.06232	0.49998
2507.13376	0.49794
2505.20519	0.49636
2503.27663	0.49523
2501.34806	0.49378
2499.41950	0.49183
2497.49094	0.48986
2495.56237	0.48819
2493.63381	0.48680
2491.70524	0.48541
2489.77668	0.48390
2487.84811	0.48251
2485.91955	0.48120
2483.99098	0.47982
2482.06242	0.47870
2480.13386	0.47789
2478.20529	0.47708
2476.27673	0.47612
2474.34816	0.47513
2472.41960	0.47451
2470.49103	0.47435
2468.56247	0.47392
2466.63391	0.47287
2464.70534	0.47176
2462.77678	0.47094
2460.84821	0.47016
2458.91965	0.46924
2456.99108	0.46822
2455.06252	0.46698
2453.13395	0.46526
2451.20539	0.46319
2449.27683	0.46123
2447.34826	0.45961
2445.41970	0.45821
2443.49113	0.45664
2441.56257	0.45472
2439.63400	0.45262
2437.70544	0.45065
2435.77687	0.44900
2433.84831	0.44747
2431.91975	0.44568
2429.99118	0.44390
2428.06262	0.44270
2426.13405	0.44209
2424.20549	0.44158
2422.27692	0.44089
2420.34836	0.44029
2418.41979	0.44001
2416.49123	0.43992
2414.56267	0.43997
2412.63410	0.44007
2410.70554	0.44021
2408.77697	0.44039
2406.84841	0.44000
2404.91984	0.43908
2402.99128	0.43848
2401.06271	0.43818
2399.13415	0.43768
2397.20559	0.43661
2395.27702	0.43501
2393.34846	0.43353
2391.41989	0.43267
2389.49133	0.43204
2387.56276	0.43098
2385.63420	0.42965
2383.70563	0.42836
2381.77707	0.42691
2379.84851	0.42522
2377.91994	0.42328
2375.99138	0.42104
2374.06281	0.41966
2372.13425	0.42021
2370.20568	0.42021
2368.27712	0.41652
2366.34855	0.41160
2364.41999	0.40909
2362.49143	0.40791
2360.56286	0.40701
2358.63430	0.40726
2356.70573	0.40732
2354.77717	0.40688
2352.84860	0.40738
2350.92004	0.40848
2348.99147	0.40923
2347.06291	0.40912
2345.13435	0.40828
2343.20578	0.40805
2341.27722	0.40810
2339.34865	0.40723
2337.42009	0.40592
2335.49152	0.40532
2333.56296	0.40565
2331.63440	0.40534
2329.70583	0.40394
2327.77727	0.40258
2325.84870	0.40120
2323.92014	0.39986
2321.99157	0.39940
2320.06301	0.39961
2318.13444	0.39988
2316.20588	0.39969
2314.27732	0.39857
2312.34875	0.39689
2310.42019	0.39527
2308.49162	0.39409
2306.56306	0.39323
2304.63449	0.39204
2302.70593	0.39061
2300.77736	0.38937
2298.84880	0.38825
2296.92024	0.38737
2294.99167	0.38693
2293.06311	0.38647
2291.13454	0.38605
2289.20598	0.38597
2287.27741	0.38561
2285.34885	0.38486
2283.42028	0.38457
2281.49172	0.38474
2279.56316	0.38482
2277.63459	0.38471
2275.70603	0.38454
2273.77746	0.38454
2271.84890	0.38479
2269.92033	0.38512
2267.99177	0.38547
2266.06320	0.38578
2264.13464	0.38595
2262.20608	0.38595
2260.27751	0.38579
2258.34895	0.38551
2256.42038	0.38513
2254.49182	0.38450
2252.56325	0.38363
2250.63469	0.38276
2248.70612	0.38198
2246.77756	0.38124
2244.84900	0.38048
2242.92043	0.37974
2240.99187	0.37896
2239.06330	0.37813
2237.13474	0.37738
2235.20617	0.37672
2233.27761	0.37612
2231.34904	0.37554
2229.42048	0.37485
2227.49192	0.37419
2225.56335	0.37366
2223.63479	0.37322
2221.70622	0.37288
2219.77766	0.37256
2217.84909	0.37221
2215.92053	0.37204
2213.99196	0.37226
2212.06340	0.37266
2210.13484	0.37281
2208.20627	0.37266
2206.27771	0.37253
2204.34914	0.37262
2202.42058	0.37259
2200.49201	0.37218
2198.56345	0.37167
2196.63488	0.37118
2194.70632	0.37053
2192.77776	0.36958
2190.84919	0.36827
2188.92063	0.36683
2186.99206	0.36557
2185.06350	0.36431
2183.13493	0.36287
2181.20637	0.36152
2179.27781	0.36035
2177.34924	0.35932
2175.42068	0.35851
2173.49211	0.35766
2171.56355	0.35667
2169.63498	0.35578
2167.70642	0.35503
2165.77785	0.35432
2163.84929	0.35376
2161.92073	0.35344
2159.99216	0.35330
2158.06360	0.35333
2156.13503	0.35342
2154.20647	0.35345
2152.27790	0.35323
2150.34934	0.35280
2148.42077	0.35264
2146.49221	0.35302
2144.56365	0.35356
2142.63508	0.35385
2140.70652	0.35388
2138.77795	0.35383
2136.84939	0.35384
2134.92082	0.35391
2132.99226	0.35389
2131.06369	0.35373
2129.13513	0.35342
2127.20657	0.35292
2125.27800	0.35226
2123.34944	0.35160
2121.42087	0.35088
2119.49231	0.35008
2117.56374	0.34935
2115.63518	0.34882
2113.70661	0.34830
2111.77805	0.34757
2109.84949	0.34684
2107.92092	0.34629
2105.99236	0.34582
2104.06379	0.34529
2102.13523	0.34466
2100.20666	0.34408
2098.27810	0.34360
2096.34953	0.34310
2094.42097	0.34275
2092.49241	0.34248
2090.56384	0.34200
2088.63528	0.34138
2086.70671	0.34085
2084.77815	0.34040
2082.84958	0.33992
2080.92102	0.33938
2078.99245	0.33870
2077.06389	0.33789
2075.13533	0.33720
2073.20676	0.33656
2071.27820	0.33576
2069.34963	0.33498
2067.42107	0.33437
2065.49250	0.33376
2063.56394	0.33306
2061.63537	0.33234
2059.70681	0.33168
2057.77825	0.33113
2055.84968	0.33071
2053.92112	0.33032
2051.99255	0.32991
2050.06399	0.32957
2048.13542	0.32935
2046.20686	0.32916
2044.27830	0.32877
2042.34973	0.32811
2040.42117	0.32750
2038.49260	0.32722
2036.56404	0.32708
2034.63547	0.32672
2032.70691	0.32616
2030.77834	0.32563
2028.84978	0.32525
2026.92122	0.32499
2024.99265	0.32481
2023.06409	0.32475
2021.13552	0.32447
2019.20696	0.32364
2017.27839	0.32273
2015.34983	0.32213
2013.42126	0.32157
2011.49270	0.32105
2009.56414	0.32085
2007.63557	0.32077
2005.70701	0.32038
2003.77844	0.31982
2001.84988	0.31955
1999.92131	0.31959
1997.99275	0.31971
1996.06418	0.31984
1994.13562	0.31998
1992.20706	0.32005
1990.27849	0.32007
1988.34993	0.31999
1986.42136	0.31979
1984.49280	0.31975
1982.56423	0.31976
1980.63567	0.31940
1978.70710	0.31876
1976.77854	0.31804
1974.84998	0.31723
1972.92141	0.31634
1970.99285	0.31536
1969.06428	0.31424
1967.13572	0.31306
1965.20715	0.31173
1963.27859	0.31029
1961.35002	0.30897
1959.42146	0.30769
1957.49290	0.30633
1955.56433	0.30486
1953.63577	0.30325
1951.70720	0.30167
1949.77864	0.30033
1947.85007	0.29910
1945.92151	0.29778
1943.99294	0.29634
1942.06438	0.29498
1940.13582	0.29402
1938.20725	0.29335
1936.27869	0.29275
1934.35012	0.29218
1932.42156	0.29168
1930.49299	0.29121
1928.56443	0.29077
1926.63586	0.29042
1924.70730	0.29004
1922.77874	0.28964
1920.85017	0.28939
1918.92161	0.28905
1916.99304	0.28836
1915.06448	0.28754
1913.13591	0.28693
1911.20735	0.28657
1909.27878	0.28616
1907.35022	0.28538
1905.42166	0.28463
1903.49309	0.28408
1901.56453	0.28337
1899.63596	0.28247
1897.70740	0.28165
1895.77883	0.28100
1893.85027	0.28052
1891.92171	0.27993
1889.99314	0.27925
1888.06458	0.27893
1886.13601	0.27876
1884.20745	0.27841
1882.27888	0.27830
1880.35032	0.27847
1878.42175	0.27844
1876.49319	0.27816
1874.56463	0.27794
1872.63606	0.27789
1870.70750	0.27808
1868.77893	0.27846
1866.85037	0.27853
1864.92180	0.27843
1862.99324	0.27851
1861.06467	0.27857
1859.13611	0.27844
1857.20755	0.27824
1855.27898	0.27804
1853.35042	0.27790
1851.42185	0.27786
1849.49329	0.27773
1847.56472	0.27722
1845.63616	0.27640
1843.70759	0.27546
1841.77903	0.27458
1839.85047	0.27371
1837.92190	0.27273
1835.99334	0.27183
1834.06477	0.27114
1832.13621	0.27062
1830.20764	0.27012
1828.27908	0.26971
1826.35051	0.26937
1824.42195	0.26884
1822.49339	0.26822
1820.56482	0.26786
1818.63626	0.26766
1816.70769	0.26731
1814.77913	0.26701
1812.85056	0.26692
1810.92200	0.26694
1808.99343	0.26698
1807.06487	0.26693
1805.13631	0.26680
1803.20774	0.26662
1801.27918	0.26644
1799.35061	0.26633
1797.42205	0.26637
1795.49348	0.26648
1793.56492	0.26642
1791.63635	0.26626
1789.70779	0.26620
1787.77923	0.26628
1785.85066	0.26637
1783.92210	0.26641
1781.99353	0.26663
1780.06497	0.26704
1778.13640	0.26748
1776.20784	0.26789
1774.27927	0.26845
1772.35071	0.26936
1770.42215	0.27064
1768.49358	0.27218
1766.56502	0.27371
1764.63645	0.27518
1762.70789	0.27748
1760.77932	0.28094
1758.85076	0.28457
1756.92220	0.28918
1754.99363	0.29431
1753.06507	0.29928
1751.13650	0.30636
1749.20794	0.31630
1747.27937	0.32541
1745.35081	0.33282
1743.42224	0.33973
1741.49368	0.34639
1739.56512	0.35247
1737.63655	0.35661
1735.70799	0.35992
1733.77942	0.36613
1731.85086	0.37229
1729.92229	0.37629
1727.99373	0.38058
1726.06516	0.38574
1724.13660	0.39246
1722.20804	0.39955
1720.27947	0.40619
1718.35091	0.41592
1716.42234	0.43184
1714.49378	0.44618
1712.56521	0.45857
1710.63665	0.47245
1708.70808	0.48867
1706.77952	0.51165
1704.85096	0.54188
1702.92239	0.56951
1700.99383	0.60613
1699.06526	0.66172
1697.13670	0.71278
1695.20813	0.76219
1693.27957	0.79807
1691.35100	0.82514
1689.42244	0.85717
1687.49388	0.88719
1685.56531	0.91735
1683.63675	0.96127
1681.70818	0.99158
1679.77962	1.00883
1677.85105	1.02527
1675.92249	1.04540
1673.99392	1.06758
1672.06536	1.08490
1670.13680	1.10223
1668.20823	1.12112
1666.27967	1.13253
1664.35110	1.14131
1662.42254	1.15230
1660.49397	1.16171
1658.56541	1.16741
1656.63684	1.17030
1654.70828	1.17379
1652.77972	1.17853
1650.85115	1.17558
1648.92259	1.16976
1646.99402	1.16686
1645.06546	1.16812
1643.13689	1.16615
1641.20833	1.16301
1639.27976	1.16035
1637.35120	1.15661
1635.42264	1.14937
1633.49407	1.14306
1631.56551	1.13882
1629.63694	1.13321
1627.70838	1.12681
1625.77981	1.12176
1623.85125	1.11465
1621.92269	1.10268
1619.99412	1.09079
1618.06556	1.07604
1616.13699	1.05347
1614.20843	1.03444
1612.27986	1.01841
1610.35130	1.00055
1608.42273	0.98275
1606.49417	0.96779
1604.56561	0.95545
1602.63704	0.94518
1600.70848	0.93791
1598.77991	0.93326
1596.85135	0.93016
1594.92278	0.92816
1592.99422	0.92740
1591.06565	0.92786
1589.13709	0.92937
1587.20853	0.93274
1585.27996	0.93815
1583.35140	0.94466
1581.42283	0.95139
1579.49427	0.95782
1577.56570	0.96647
1575.63714	0.98042
1573.70857	0.99076
1571.78001	0.99745
1569.85145	1.00740
1567.92288	1.01849
1565.99432	1.02720
1564.06575	1.03528
1562.13719	1.04060
1560.20862	1.04772
1558.28006	1.07006
1556.35149	1.08221
1554.42293	1.08468
1552.49437	1.08742
1550.56580	1.09200
1548.63724	1.09507
1546.70867	1.09436
1544.78011	1.09206
1542.85154	1.08993
1540.92298	1.08528
1538.99441	1.07805
1537.06585	1.07503
1535.13729	1.07267
1533.20872	1.06917
1531.28016	1.06465
1529.35159	1.05916
1527.42303	1.05272
1525.49446	1.04790
1523.56590	1.04551
1521.63733	1.04058
1519.70877	1.03513
1517.78021	1.03108
1515.85164	1.02331
1513.92308	1.01204
1511.99451	0.99989
1510.06595	0.98790
1508.13738	0.96901
1506.20882	0.93428
1504.28025	0.91387
1502.35169	0.90040
1500.42313	0.88481
1498.49456	0.86455
1496.56600	0.84015
1494.63743	0.82115
1492.70887	0.80844
1490.78030	0.79403
1488.85174	0.77575
1486.92317	0.76297
1484.99461	0.75532
1483.06605	0.74996
1481.13748	0.74726
1479.20892	0.74798
1477.28035	0.75215
1475.35179	0.76057
1473.42322	0.77641
1471.49466	0.79458
1469.56610	0.80465
1467.63753	0.81132
1465.70897	0.81979
1463.78040	0.82880
1461.85184	0.83377
1459.92327	0.83648
1457.99471	0.84300
1456.06614	0.85329
1454.13758	0.85612
1452.20902	0.85513
1450.28045	0.85339
1448.35189	0.85114
1446.42332	0.84797
1444.49476	0.84416
1442.56619	0.83959
1440.63763	0.83418
1438.70906	0.82779
1436.78050	0.81929
1434.85194	0.81068
1432.92337	0.80416
1430.99481	0.79821
1429.06624	0.79291
1427.13768	0.78958
1425.20911	0.78814
1423.28055	0.78811
1421.35198	0.78902
1419.42342	0.79221
1417.49486	0.79705
1415.56629	0.79912
1413.63773	0.79931
1411.70916	0.79950
1409.78060	0.80005
1407.85203	0.80078
1405.92347	0.80239
1403.99490	0.80491
1402.06634	0.80712
1400.13778	0.80920
1398.20921	0.81118
1396.28065	0.81199
1394.35208	0.81140
1392.42352	0.81062
1390.49495	0.81137
1388.56639	0.81541
1386.63782	0.82312
1384.70926	0.83147
1382.78070	0.83863
1380.85213	0.84353
1378.92357	0.84500
1376.99500	0.84278
1375.06644	0.83591
1373.13787	0.82502
1371.20931	0.81340
1369.28074	0.80036
1367.35218	0.78569
1365.42362	0.77213
1363.49505	0.75929
1361.56649	0.74758
1359.63792	0.73974
1357.70936	0.73514
1355.78079	0.73229
1353.85223	0.73048
1351.92366	0.72908
1349.99510	0.72771
1348.06654	0.72678
1346.13797	0.72665
1344.20941	0.72689
1342.28084	0.72718
1340.35228	0.72803
1338.42371	0.72984
1336.49515	0.73236
1334.56659	0.73593
1332.63802	0.74109
1330.70946	0.74727
1328.78089	0.75271
1326.85233	0.75602
1324.92376	0.75726
1322.99520	0.75751
1321.06663	0.75797
1319.13807	0.75931
1317.20951	0.76113
1315.28094	0.76238
1313.35238	0.76301
1311.42381	0.76350
1309.49525	0.76344
1307.56668	0.76226
1305.63812	0.76028
1303.70955	0.75831
1301.78099	0.75640
1299.85243	0.75352
1297.92386	0.74923
1295.99530	0.74492
1294.06673	0.74165
1292.13817	0.73908
1290.20960	0.73735
1288.28104	0.73673
1286.35247	0.73654
1284.42391	0.73594
1282.49535	0.73515
1280.56678	0.73483
1278.63822	0.73521
1276.70965	0.73619
1274.78109	0.73758
1272.85252	0.73926
1270.92396	0.74169
1268.99539	0.74537
1267.06683	0.74968
1265.13827	0.75304
1263.20970	0.75420
1261.28114	0.75366
1259.35257	0.75292
1257.42401	0.75247
1255.49544	0.75230
1253.56688	0.75274
1251.63831	0.75371
1249.70975	0.75450
1247.78119	0.75465
1245.85262	0.75462
1243.92406	0.75454
1241.99549	0.75404
1240.06693	0.75328
1238.13836	0.75270
1236.20980	0.75186
1234.28123	0.74988
1232.35267	0.74684
1230.42411	0.74293
1228.49554	0.73754
1226.56698	0.73093
1224.63841	0.72396
1222.70985	0.71677
1220.78128	0.70908
1218.85272	0.70111
1216.92415	0.69383
1214.99559	0.68820
1213.06703	0.68444
1211.13846	0.68230
1209.20990	0.68129
1207.28133	0.68015
1205.35277	0.67738
1203.42420	0.67239
1201.49564	0.66560
1199.56708	0.65781
1197.63851	0.64994
1195.70995	0.64281
1193.78138	0.63665
1191.85282	0.63147
1189.92425	0.62795
1187.99569	0.62669
1186.06712	0.62714
1184.13856	0.62859
1182.21000	0.63158
1180.28143	0.63693
1178.35287	0.64456
1176.42430	0.65392
1174.49574	0.66453
1172.56717	0.67586
1170.63861	0.68794
1168.71004	0.70135
1166.78148	0.71614
1164.85292	0.73200
1162.92435	0.74786
1160.99579	0.76102
1159.06722	0.76896
1157.13866	0.77146
1155.21009	0.76995
1153.28153	0.76542
1151.35296	0.75844
1149.42440	0.75016
1147.49584	0.74179
1145.56727	0.73397
1143.63871	0.72793
1141.71014	0.72526
1139.78158	0.72631
1137.85301	0.73021
1135.92445	0.73626
1133.99588	0.74447
1132.06732	0.75486
1130.13876	0.76706
1128.21019	0.78022
1126.28163	0.79346
1124.35306	0.80645
1122.42450	0.81874
1120.49593	0.82922
1118.56737	0.83715
1116.63880	0.84231
1114.71024	0.84491
1112.78168	0.84595
1110.85311	0.84580
1108.92455	0.84409
1106.99598	0.84151
1105.06742	0.83902
1103.13885	0.83691
1101.21029	0.83478
1099.28172	0.83215
1097.35316	0.83032
1095.42460	0.83115
1093.49603	0.83476
1091.56747	0.84042
1089.63890	0.84767
1087.71034	0.85636
1085.78177	0.86549
1083.85321	0.87448
1081.92464	0.88392
1079.99608	0.89156
1078.06752	0.89400
1076.13895	0.89127
1074.21039	0.88509
1072.28182	0.87723
1070.35326	0.86902
1068.42469	0.86115
1066.49613	0.85459
1064.56756	0.84980
1062.63900	0.84604
1060.71044	0.84296
1058.78187	0.84117
1056.85331	0.84072
1054.92474	0.84111
1052.99618	0.84275
1051.06761	0.84575
1049.13905	0.84825
1047.21049	0.84920
1045.28192	0.85086
1043.35336	0.85544
1041.42479	0.86133
1039.49623	0.86581
1037.56766	0.86875
1035.63910	0.87045
1033.71053	0.86998
1031.78197	0.86675
1029.85341	0.86098
1027.92484	0.85314
1025.99628	0.84326
1024.06771	0.83095
1022.13915	0.81709
1020.21058	0.80359
1018.28202	0.79115
1016.35345	0.77899
1014.42489	0.76602
1012.49633	0.75132
1010.56776	0.73452
1008.63920	0.71621
1006.71063	0.69801
1004.78207	0.68132
1002.85350	0.66659
1000.92494	0.65424
998.99637	0.64512
997.06781	0.63916
995.13925	0.63500
993.21068	0.63145
991.28212	0.62754
989.35355	0.62208
987.42499	0.61495
985.49642	0.60705
983.56786	0.59948
981.63929	0.59326
979.71073	0.58823
977.78217	0.58320
975.85360	0.57732
973.92504	0.56959
971.99647	0.55926
970.06791	0.54684
968.13934	0.53325
966.21078	0.51935
964.28221	0.50640
962.35365	0.49616
960.42509	0.49011
958.49652	0.48836
956.56796	0.48865
954.63939	0.48704
952.71083	0.48120
950.78226	0.47175
948.85370	0.46080
946.92513	0.45101
944.99657	0.44438
943.06801	0.44126
941.13944	0.44094
939.21088	0.44273
937.28231	0.44617
935.35375	0.45080
933.42518	0.45643
931.49662	0.46321
929.56805	0.47120
927.63949	0.48029
925.71093	0.49019
923.78236	0.50023
921.85380	0.50937
919.92523	0.51644
917.99667	0.52080
916.06810	0.52287
914.13954	0.52342
912.21098	0.52273
910.28241	0.52086
908.35385	0.51809
906.42528	0.51454
904.49672	0.51032
902.56815	0.50562
900.63959	0.50023
898.71102	0.49371
896.78246	0.48597
894.85390	0.47734
892.92533	0.46831
890.99677	0.45940
889.06820	0.45123
887.13964	0.44426
885.21107	0.43866
883.28251	0.43478
881.35394	0.43287
879.42538	0.43257
877.49682	0.43339
875.56825	0.43511
873.63969	0.43756
871.71112	0.44079
869.78256	0.44494
867.85399	0.44990
865.92543	0.45558
863.99686	0.46190
862.06830	0.46842
860.13974	0.47498
858.21117	0.48182
856.28261	0.48870
854.35404	0.49490
852.42548	0.49973
850.49691	0.50275
848.56835	0.50413
846.63978	0.50428
844.71122	0.50352
842.78266	0.50230
840.85409	0.50027
838.92553	0.49694
836.99696	0.49311
835.06840	0.48960
833.13983	0.48626
831.21127	0.48270
829.28270	0.47913
827.35414	0.47621
825.42558	0.47437
823.49701	0.47372
821.56845	0.47417
819.63988	0.47543
817.71132	0.47767
815.78275	0.48113
813.85419	0.48542
811.92562	0.49022
809.99706	0.49542
808.06850	0.50093
806.13993	0.50648
804.21137	0.51172
802.28280	0.51701
800.35424	0.52239
798.42567	0.52693
796.49711	0.53030
794.56854	0.53319
792.63998	0.53590
790.71142	0.53793
788.78285	0.53916
786.85429	0.53985
784.92572	0.54000
782.99716	0.53971
781.06859	0.53876
779.14003	0.53729
777.21147	0.53611
775.28290	0.53525
773.35434	0.53419
771.42577	0.53301
769.49721	0.53219
767.56864	0.53181
765.64008	0.53163
763.71151	0.53152
761.78295	0.53204
759.85439	0.53426
757.92582	0.53822
755.99726	0.54255
754.06869	0.54696
752.14013	0.55280
750.21156	0.55995
748.28300	0.56659
746.35443	0.57219
744.42587	0.57781
742.49731	0.58415
740.56874	0.59092
738.64018	0.59793
736.71161	0.60560
734.78305	0.61349
732.85448	0.62048
730.92592	0.62741
728.99735	0.63526
727.06879	0.64273
725.14023	0.64891
723.21166	0.65429
721.28310	0.65900
719.35453	0.66246
717.42597	0.66427
715.49740	0.66497
713.56884	0.66587
711.64027	0.66736
709.71171	0.66856
707.78315	0.66946
705.85458	0.67041
703.92602	0.67000
701.99745	0.66781
700.06889	0.66569
698.14032	0.66399
696.21176	0.66195
694.28319	0.66057
692.35463	0.66097
690.42607	0.66268
688.49750	0.66380
686.56894	0.66345
684.64037	0.66337
682.71181	0.66442
680.78324	0.66609
678.85468	0.66871
676.92611	0.67187
674.99755	0.67411
673.06899	0.67427
671.14042	0.67252
669.21186	0.67251
667.28329	0.67756
665.35473	0.68038
663.42616	0.68090
661.49760	0.68167
659.56903	0.68284
657.64047	0.68401
655.71191	0.68480
653.78334	0.68530
651.85478	0.68592
649.92621	0.68660
647.99765	0.68760
646.06908	0.68933
644.14052	0.69218
642.21195	0.69717
640.28339	0.70416
638.35483	0.71029
636.42626	0.71334
634.49770	0.71487
632.56913	0.71860
630.64057	0.72524
628.71200	0.73075
626.78344	0.73262
624.85488	0.73370
622.92631	0.73726
620.99775	0.74101
619.06918	0.74126
617.14062	0.73931
615.21205	0.73851
613.28349	0.73977
611.35492	0.74105
609.42636	0.74025
607.49780	0.73937
605.56923	0.74047
603.64067	0.74229
601.71210	0.74251
599.78354	0.74052
