3997.91406	0.80175
3995.98550	0.80244
3994.05693	0.80049
3992.12837	0.79827
3990.19980	0.79676
3988.27124	0.79610
3986.34268	0.79740
3984.41411	0.79909
3982.48555	0.79904
3980.55698	0.79833
3978.62842	0.79769
3976.69985	0.79716
3974.77129	0.79659
3972.84272	0.79433
3970.91416	0.79114
3968.98560	0.79059
3967.05703	0.79341
3965.12847	0.79578
3963.19990	0.79335
3961.27134	0.78817
3959.34277	0.78681
3957.41421	0.78966
3955.48564	0.79285
3953.55708	0.79391
3951.62852	0.79133
3949.69995	0.78544
3947.77139	0.78180
3945.84282	0.78361
3943.91426	0.78397
3941.98569	0.77941
3940.05713	0.77615
3938.12856	0.77605
3936.20000	0.77858
3934.27144	0.78187
3932.34287	0.78048
3930.41431	0.77645
3928.48574	0.77781
3926.55718	0.78283
3924.62861	0.78462
3922.70005	0.78345
3920.77148	0.78301
3918.84292	0.78038
3916.91436	0.77359
3914.98579	0.76873
3913.05723	0.76896
3911.12866	0.77121
3909.20010	0.77459
3907.27153	0.78030
3905.34297	0.78485
3903.41440	0.78181
3901.48584	0.77310
3899.55728	0.76342
3897.62871	0.75913
3895.70015	0.76442
3893.77158	0.77293
3891.84302	0.77262
3889.91445	0.76885
3887.98589	0.77250
3886.05733	0.77355
3884.12876	0.76831
3882.20020	0.76546
3880.27163	0.75824
3878.34307	0.75261
3876.41450	0.75610
3874.48594	0.76322
3872.55737	0.77082
3870.62881	0.76929
3868.70025	0.75922
3866.77168	0.75845
3864.84312	0.75811
3862.91455	0.74865
3860.98599	0.74342
3859.05742	0.74690
3857.12886	0.75752
3855.20029	0.77111
3853.27173	0.76158
3851.34317	0.73906
3849.41460	0.73413
3847.48604	0.73943
3845.55747	0.74749
3843.62891	0.75288
3841.70034	0.75773
3839.77178	0.76307
3837.84321	0.75733
3835.91465	0.74613
3833.98609	0.74108
3832.05752	0.73901
3830.12896	0.73810
3828.20039	0.73818
3826.27183	0.73983
3824.34326	0.74786
3822.41470	0.75354
3820.48613	0.74265
3818.55757	0.73630
3816.62901	0.73171
3814.70044	0.72337
3812.77188	0.72391
3810.84331	0.73066
3808.91475	0.73737
3806.98618	0.73762
3805.05762	0.73810
3803.12905	0.74111
3801.20049	0.73142
3799.27193	0.72284
3797.34336	0.72228
3795.41480	0.72098
3793.48623	0.72139
3791.55767	0.72175
3789.62910	0.71942
3787.70054	0.71706
3785.77197	0.71409
3783.84341	0.71165
3781.91485	0.71320
3779.98628	0.71225
3778.05772	0.70742
3776.12915	0.70806
3774.20059	0.71320
3772.27202	0.71650
3770.34346	0.71277
3768.41489	0.70720
3766.48633	0.70521
3764.55777	0.70445
3762.62920	0.70764
3760.70064	0.71370
3758.77207	0.71540
3756.84351	0.71460
3754.91494	0.72000
3752.98638	0.73052
3751.05781	0.72801
3749.12925	0.71660
3747.20069	0.72085
3745.27212	0.72396
3743.34356	0.71232
3741.41499	0.70748
3739.48643	0.71452
3737.55786	0.72435
3735.62930	0.72024
3733.70074	0.70228
3731.77217	0.69449
3729.84361	0.69714
3727.91504	0.70301
3725.98648	0.70578
3724.05791	0.70253
3722.12935	0.69707
3720.20078	0.69298
3718.27222	0.69195
3716.34366	0.69562
3714.41509	0.70331
3712.48653	0.70363
3710.55796	0.68753
3708.62940	0.67993
3706.70083	0.68421
3704.77227	0.68950
3702.84370	0.68880
3700.91514	0.68378
3698.98658	0.68215
3697.05801	0.68420
3695.12945	0.68944
3693.20088	0.69703
3691.27232	0.70043
3689.34375	0.69080
3687.41519	0.68308
3685.48662	0.68659
3683.55806	0.69330
3681.62950	0.69768
3679.70093	0.70108
3677.77237	0.70672
3675.84380	0.70573
3673.91524	0.70363
3671.98667	0.71015
3670.05811	0.70542
3668.12954	0.69453
3666.20098	0.69680
3664.27242	0.70386
3662.34385	0.70794
3660.41529	0.71037
3658.48672	0.71392
3656.55816	0.71621
3654.62959	0.72101
3652.70103	0.73399
3650.77246	0.74695
3648.84390	0.73751
3646.91534	0.72656
3644.98677	0.73017
3643.05821	0.73775
3641.12964	0.74394
3639.20108	0.74727
3637.27251	0.75020
3635.34395	0.75450
3633.41538	0.76064
3631.48682	0.76926
3629.55826	0.77118
3627.62969	0.76303
3625.70113	0.76596
3623.77256	0.77677
3621.84400	0.78768
3619.91543	0.79227
3617.98687	0.79161
3616.05830	0.79602
3614.12974	0.80221
3612.20118	0.80529
3610.27261	0.80670
3608.34405	0.80707
3606.41548	0.81104
3604.48692	0.81987
3602.55835	0.82808
3600.62979	0.83293
3598.70123	0.83758
3596.77266	0.84279
3594.84410	0.84690
3592.91553	0.85334
3590.98697	0.86277
3589.05840	0.86897
3587.12984	0.86794
3585.20127	0.86882
3583.27271	0.87374
3581.34415	0.87854
3579.41558	0.88332
3577.48702	0.88921
3575.55845	0.89430
3573.62989	0.89804
3571.70132	0.90509
3569.77276	0.91646
3567.84419	0.92396
3565.91563	0.92180
3563.98707	0.92251
3562.05850	0.92903
3560.12994	0.93450
3558.20137	0.93686
3556.27281	0.94069
3554.34424	0.94663
3552.41568	0.95134
3550.48711	0.95789
3548.55855	0.97008
3546.62999	0.98216
3544.70142	0.98660
3542.77286	0.98521
3540.84429	0.98382
3538.91573	0.98656
3536.98716	0.99280
3535.05860	0.99885
3533.13003	1.00493
3531.20147	1.01222
3529.27291	1.01924
3527.34434	1.02636
3525.41578	1.03510
3523.48721	1.04222
3521.55865	1.04443
3519.63008	1.04539
3517.70152	1.05075
3515.77295	1.06033
3513.84439	1.06956
3511.91583	1.07728
3509.98726	1.08473
3508.05870	1.09190
3506.13013	1.09896
3504.20157	1.10345
3502.27300	1.10592
3500.34444	1.11586
3498.41587	1.13255
3496.48731	1.14353
3494.55875	1.14577
3492.63018	1.15040
3490.70162	1.16205
3488.77305	1.17330
3486.84449	1.17892
3484.91592	1.18145
3482.98736	1.18335
3481.05879	1.18535
3479.13023	1.18805
3477.20167	1.19267
3475.27310	1.19927
3473.34454	1.20536
3471.41597	1.20921
3469.48741	1.20973
3467.55884	1.20752
3465.63028	1.20702
3463.70171	1.21042
3461.77315	1.21704
3459.84459	1.22462
3457.91602	1.22829
3455.98746	1.22859
3454.05889	1.23202
3452.13033	1.24069
3450.20176	1.24854
3448.27320	1.25039
3446.34464	1.25031
3444.41607	1.25111
3442.48751	1.25170
3440.55894	1.25706
3438.63038	1.26857
3436.70181	1.27841
3434.77325	1.28058
3432.84468	1.27812
3430.91612	1.27917
3428.98756	1.28474
3427.05899	1.28599
3425.13043	1.27761
3423.20186	1.26566
3421.27330	1.25953
3419.34473	1.26033
3417.41617	1.26488
3415.48760	1.27219
3413.55904	1.27787
3411.63048	1.27854
3409.70191	1.27452
3407.77335	1.26738
3405.84478	1.26395
3403.91622	1.27052
3401.98765	1.28299
3400.05909	1.28896
3398.13052	1.28677
3396.20196	1.28871
3394.27340	1.29614
3392.34483	1.29858
3390.41627	1.29464
3388.48770	1.29082
3386.55914	1.28745
3384.63057	1.28290
3382.70201	1.28251
3380.77344	1.28813
3378.84488	1.29276
3376.91632	1.29239
3374.98775	1.28990
3373.05919	1.29020
3371.13062	1.29522
3369.20206	1.30253
3367.27349	1.30979
3365.34493	1.31360
3363.41636	1.31096
3361.48780	1.30674
3359.55924	1.30640
3357.63067	1.30868
3355.70211	1.31220
3353.77354	1.31978
3351.84498	1.33074
3349.91641	1.33626
3347.98785	1.33266
3346.05928	1.32856
3344.13072	1.32991
3342.20216	1.33241
3340.27359	1.33242
3338.34503	1.33417
3336.41646	1.33875
3334.48790	1.34230
3332.55933	1.34508
3330.63077	1.34656
3328.70220	1.34670
3326.77364	1.34927
3324.84508	1.35472
3322.91651	1.36242
3320.98795	1.37267
3319.05938	1.38188
3317.13082	1.38553
3315.20225	1.38446
3313.27369	1.38384
3311.34513	1.38625
3309.41656	1.38931
3307.48800	1.39198
3305.55943	1.39590
3303.63087	1.40001
3301.70230	1.40345
3299.77374	1.40697
3297.84517	1.40937
3295.91661	1.41126
3293.98805	1.41540
3292.05948	1.42001
3290.13092	1.41990
3288.20235	1.41660
3286.27379	1.41726
3284.34522	1.42040
3282.41666	1.41984
3280.48809	1.42117
3278.55953	1.42825
3276.63097	1.43057
3274.70240	1.42432
3272.77384	1.41750
3270.84527	1.41369
3268.91671	1.41126
3266.98814	1.40909
3265.05958	1.40656
3263.13101	1.40100
3261.20245	1.39250
3259.27389	1.38319
3257.34532	1.37148
3255.41676	1.35570
3253.48819	1.33874
3251.55963	1.32722
3249.63106	1.32202
3247.70250	1.31572
3245.77393	1.30398
3243.84537	1.29148
3241.91681	1.28450
3239.98824	1.28109
3238.05968	1.27518
3236.13111	1.26889
3234.20255	1.26662
3232.27398	1.26305
3230.34542	1.25361
3228.41685	1.24377
3226.48829	1.23712
3224.55973	1.23244
3222.63116	1.23040
3220.70260	1.22889
3218.77403	1.22372
3216.84547	1.21703
3214.91690	1.21175
3212.98834	1.20696
3211.05977	1.20162
3209.13121	1.19517
3207.20265	1.18738
3205.27408	1.17986
3203.34552	1.17455
3201.41695	1.16970
3199.48839	1.16445
3197.55982	1.16169
3195.63126	1.15914
3193.70269	1.15403
3191.77413	1.14994
3189.84557	1.14708
3187.91700	1.14228
3185.98844	1.13634
3184.05987	1.13157
3182.13131	1.12892
3180.20274	1.12619
3178.27418	1.11925
3176.34562	1.11022
3174.41705	1.10553
3172.48849	1.10489
3170.55992	1.10214
3168.63136	1.09579
3166.70279	1.08879
3164.77423	1.08092
3162.84566	1.07348
3160.91710	1.07014
3158.98854	1.06889
3157.05997	1.06602
3155.13141	1.06367
3153.20284	1.06351
3151.27428	1.06180
3149.34571	1.05778
3147.41715	1.05459
3145.48858	1.05246
3143.56002	1.05053
3141.63146	1.04758
3139.70289	1.04429
3137.77433	1.04327
3135.84576	1.04152
3133.91720	1.03685
3131.98863	1.03412
3130.06007	1.03584
3128.13150	1.03878
3126.20294	1.03918
3124.27438	1.03690
3122.34581	1.03517
3120.41725	1.03546
3118.48868	1.03529
3116.56012	1.03265
3114.63155	1.02967
3112.70299	1.02857
3110.77442	1.02850
3108.84586	1.02817
3106.91730	1.02799
3104.98873	1.02855
3103.06017	1.02832
3101.13160	1.02721
3099.20304	1.02731
3097.27447	1.02754
3095.34591	1.02589
3093.41734	1.02226
3091.48878	1.01685
3089.56022	1.01092
3087.63165	1.00630
3085.70309	1.00336
3083.77452	1.00131
3081.84596	0.99976
3079.91739	0.99758
3077.98883	0.99354
3076.06026	0.98915
3074.13170	0.98637
3072.20314	0.98485
3070.27457	0.98304
3068.34601	0.98124
3066.41744	0.98104
3064.48888	0.98035
3062.56031	0.97637
3060.63175	0.97091
3058.70318	0.96572
3056.77462	0.96056
3054.84606	0.95571
3052.91749	0.95114
3050.98893	0.94618
3049.06036	0.94106
3047.13180	0.93621
3045.20323	0.93182
3043.27467	0.92825
3041.34610	0.92449
3039.41754	0.91984
3037.48898	0.91552
3035.56041	0.91195
3033.63185	0.90882
3031.70328	0.90631
3029.77472	0.90448
3027.84615	0.90244
3025.91759	0.89918
3023.98903	0.89592
3022.06046	0.89413
3020.13190	0.89264
3018.20333	0.89032
3016.27477	0.88785
3014.34620	0.88593
3012.41764	0.88405
3010.48907	0.88118
3008.56051	0.87729
3006.63195	0.87404
3004.70338	0.87268
3002.77482	0.87246
3000.84625	0.87174
2998.91769	0.87028
2996.98912	0.87012
2995.06056	0.87163
2993.13199	0.87269
2991.20343	0.87438
2989.27487	0.87925
2987.34630	0.88546
2985.41774	0.88988
2983.48917	0.89334
2981.56061	0.89877
2979.63204	0.90589
2977.70348	0.91199
2975.77491	0.91747
2973.84635	0.92295
2971.91779	0.92708
2969.98922	0.93142
2968.06066	0.93834
2966.13209	0.94631
2964.20353	0.95179
2962.27496	0.95309
2960.34640	0.95155
2958.41783	0.94860
2956.48927	0.94492
2954.56071	0.94165
2952.63214	0.93844
2950.70358	0.93440
2948.77501	0.93158
2946.84645	0.93193
2944.91788	0.93464
2942.98932	0.94011
2941.06075	0.94937
2939.13219	0.96013
2937.20363	0.96905
2935.27506	0.97582
2933.34650	0.98180
2931.41793	0.98753
2929.48937	0.99365
2927.56080	0.99972
2925.63224	1.00391
2923.70367	1.00683
2921.77511	1.00907
2919.84655	1.00828
2917.91798	1.00268
2915.98942	0.99103
2914.06085	0.97280
2912.13229	0.95293
2910.20372	0.93776
2908.27516	0.92769
2906.34659	0.91977
2904.41803	0.91293
2902.48947	0.90735
2900.56090	0.90248
2898.63234	0.89792
2896.70377	0.89447
2894.77521	0.89288
2892.84664	0.89122
2890.91808	0.88757
2888.98952	0.88414
2887.06095	0.88249
2885.13239	0.88078
2883.20382	0.87860
2881.27526	0.87771
2879.34669	0.87828
2877.41813	0.87823
2875.48956	0.87614
2873.56100	0.87237
2871.63244	0.86761
2869.70387	0.86227
2867.77531	0.85719
2865.84674	0.85301
2863.91818	0.84995
2861.98961	0.84907
2860.06105	0.85007
2858.13248	0.85171
2856.20392	0.85513
2854.27536	0.86079
2852.34679	0.86621
2850.41823	0.86687
2848.48966	0.85755
2846.56110	0.83907
2844.63253	0.81898
2842.70397	0.80254
2840.77540	0.78988
2838.84684	0.78010
2836.91828	0.77308
2834.98971	0.76855
2833.06115	0.76549
2831.13258	0.76210
2829.20402	0.75790
2827.27545	0.75454
2825.34689	0.75236
2823.41832	0.75047
2821.48976	0.74883
2819.56120	0.74673
2817.63263	0.74318
2815.70407	0.73923
2813.77550	0.73609
2811.84694	0.73321
2809.91837	0.72995
2807.98981	0.72721
2806.06124	0.72533
2804.13268	0.72296
2802.20412	0.71958
2800.27555	0.71602
2798.34699	0.71279
2796.41842	0.71003
2794.48986	0.70768
2792.56129	0.70559
2790.63273	0.70380
2788.70416	0.70222
2786.77560	0.70087
2784.84704	0.69981
2782.91847	0.69842
2780.98991	0.69615
2779.06134	0.69328
2777.13278	0.69068
2775.20421	0.68919
2773.27565	0.68837
2771.34708	0.68723
2769.41852	0.68529
2767.48996	0.68264
2765.56139	0.68025
2763.63283	0.67871
2761.70426	0.67696
2759.77570	0.67456
2757.84713	0.67236
2755.91857	0.67054
2753.99001	0.66897
2752.06144	0.66775
2750.13288	0.66654
2748.20431	0.66517
2746.27575	0.66396
2744.34718	0.66332
2742.41862	0.66304
2740.49005	0.66229
2738.56149	0.66069
2736.63293	0.65885
2734.70436	0.65730
2732.77580	0.65591
2730.84723	0.65465
2728.91867	0.65354
2726.99010	0.65219
2725.06154	0.65055
2723.13297	0.64881
2721.20441	0.64715
2719.27585	0.64611
2717.34728	0.64541
2715.41872	0.64373
2713.49015	0.64105
2711.56159	0.63885
2709.63302	0.63772
2707.70446	0.63672
2705.77589	0.63481
2703.84733	0.63221
2701.91877	0.62974
2699.99020	0.62783
2698.06164	0.62631
2696.13307	0.62451
2694.20451	0.62239
2692.27594	0.62098
2690.34738	0.62041
2688.41881	0.61951
2686.49025	0.61810
2684.56169	0.61691
2682.63312	0.61562
2680.70456	0.61367
2678.77599	0.61182
2676.84743	0.61037
2674.91886	0.60875
2672.99030	0.60700
2671.06173	0.60538
2669.13317	0.60418
2667.20461	0.60349
2665.27604	0.60281
2663.34748	0.60191
2661.41891	0.60107
2659.49035	0.60041
2657.56178	0.59957
2655.63322	0.59805
2653.70465	0.59633
2651.77609	0.59520
2649.84753	0.59467
2647.91896	0.59413
2645.99040	0.59274
2644.06183	0.59051
2642.13327	0.58850
2640.20470	0.58745
2638.27614	0.58697
2636.34757	0.58594
2634.41901	0.58388
2632.49045	0.58162
2630.56188	0.57999
2628.63332	0.57888
2626.70475	0.57795
2624.77619	0.57720
2622.84762	0.57621
2620.91906	0.57444
2618.99049	0.57247
2617.06193	0.57114
2615.13337	0.57040
2613.20480	0.56989
2611.27624	0.56921
2609.34767	0.56771
2607.41911	0.56522
2605.49054	0.56275
2603.56198	0.56108
2601.63342	0.55987
2599.70485	0.55848
2597.77629	0.55671
2595.84772	0.55486
2593.91916	0.55316
2591.99059	0.55161
2590.06203	0.55036
2588.13346	0.54955
2586.20490	0.54876
2584.27634	0.54762
2582.34777	0.54653
2580.41921	0.54597
2578.49064	0.54588
2576.56208	0.54590
2574.63351	0.54546
2572.70495	0.54414
2570.77638	0.54242
2568.84782	0.54108
2566.91926	0.54006
2564.99069	0.53902
2563.06213	0.53782
2561.13356	0.53591
2559.20500	0.53351
2557.27643	0.53171
2555.34787	0.53039
2553.41930	0.52867
2551.49074	0.52694
2549.56218	0.52580
2547.63361	0.52488
2545.70505	0.52389
2543.77648	0.52309
2541.84792	0.52235
2539.91935	0.52142
2537.99079	0.52054
2536.06222	0.52015
2534.13366	0.52013
2532.20510	0.51998
2530.27653	0.51952
2528.34797	0.51845
2526.41940	0.51660
2524.49084	0.51498
2522.56227	0.51435
2520.63371	0.51367
2518.70514	0.51190
2516.77658	0.50988
2514.84802	0.50853
2512.91945	0.50753
2510.99089	0.50627
2509.06232	0.50446
2507.13376	0.50254
2505.20519	0.50133
2503.27663	0.50055
2501.34806	0.49956
2499.41950	0.49868
2497.49094	0.49823
2495.56237	0.49787
2493.63381	0.49742
2491.70524	0.49692
2489.77668	0.49644
2487.84811	0.49598
2485.91955	0.49505
2483.99098	0.49356
2482.06242	0.49204
2480.13386	0.49064
2478.20529	0.48930
2476.27673	0.48804
2474.34816	0.48662
2472.41960	0.48451
2470.49103	0.48197
2468.56247	0.48000
2466.63391	0.47856
2464.70534	0.47705
2462.77678	0.47564
2460.84821	0.47437
2458.91965	0.47319
2456.99108	0.47250
2455.06252	0.47202
2453.13395	0.47117
2451.20539	0.47011
2449.27683	0.46922
2447.34826	0.46847
2445.41970	0.46766
2443.49113	0.46672
2441.56257	0.46571
2439.63400	0.46458
2437.70544	0.46348
2435.77687	0.46271
2433.84831	0.46207
2431.91975	0.46088
2429.99118	0.45908
2428.06262	0.45728
2426.13405	0.45588
2424.20549	0.45463
2422.27692	0.45311
2420.34836	0.45141
2418.41979	0.44997
2416.49123	0.44898
2414.56267	0.44839
2412.63410	0.44814
2410.70554	0.44818
2408.77697	0.44812
2406.84841	0.44739
2404.91984	0.44642
2402.99128	0.44610
2401.06271	0.44600
2399.13415	0.44516
2397.20559	0.44386
2395.27702	0.44268
2393.34846	0.44151
2391.41989	0.44013
2389.49133	0.43858
2387.56276	0.43686
2385.63420	0.43523
2383.70563	0.43392
2381.77707	0.43257
2379.84851	0.43102
2377.91994	0.42954
2375.99138	0.42774
2374.06281	0.42563
2372.13425	0.42491
2370.20568	0.42642
2368.27712	0.42871
2366.34855	0.42987
2364.41999	0.42792
2362.49143	0.42508
2360.56286	0.42700
2358.63430	0.43047
2356.70573	0.42862
2354.77717	0.42302
2352.84860	0.41853
2350.92004	0.41721
2348.99147	0.41787
2347.06291	0.41866
2345.13435	0.41795
2343.20578	0.41543
2341.27722	0.41309
2339.34865	0.41238
2337.42009	0.41240
2335.49152	0.41166
2333.56296	0.41007
2331.63440	0.40844
2329.70583	0.40831
2327.77727	0.40955
2325.84870	0.41067
2323.92014	0.41157
2321.99157	0.41215
2320.06301	0.41194
2318.13444	0.41131
2316.20588	0.41046
2314.27732	0.40919
2312.34875	0.40759
2310.42019	0.40596
2308.49162	0.40473
2306.56306	0.40368
2304.63449	0.40214
2302.70593	0.40034
2300.77736	0.39893
2298.84880	0.39801
2296.92024	0.39749
2294.99167	0.39710
2293.06311	0.39651
2291.13454	0.39597
2289.20598	0.39576
2287.27741	0.39564
2285.34885	0.39566
2283.42028	0.39605
2281.49172	0.39638
2279.56316	0.39604
2277.63459	0.39524
2275.70603	0.39473
2273.77746	0.39458
2271.84890	0.39454
2269.92033	0.39445
2267.99177	0.39390
2266.06320	0.39301
2264.13464	0.39234
2262.20608	0.39158
2260.27751	0.39042
2258.34895	0.38929
2256.42038	0.38851
2254.49182	0.38792
2252.56325	0.38760
2250.63469	0.38754
2248.70612	0.38738
2246.77756	0.38716
2244.84900	0.38698
2242.92043	0.38678
2240.99187	0.38669
2239.06330	0.38663
2237.13474	0.38631
2235.20617	0.38567
2233.27761	0.38486
2231.34904	0.38399
2229.42048	0.38294
2227.49192	0.38166
2225.56335	0.38020
2223.63479	0.37852
2221.70622	0.37688
2219.77766	0.37575
2217.84909	0.37514
2215.92053	0.37460
2213.99196	0.37388
2212.06340	0.37320
2210.13484	0.37291
2208.20627	0.37302
2206.27771	0.37331
2204.34914	0.37387
2202.42058	0.37461
2200.49201	0.37509
2198.56345	0.37535
2196.63488	0.37560
2194.70632	0.37569
2192.77776	0.37560
2190.84919	0.37544
2188.92063	0.37508
2186.99206	0.37444
2185.06350	0.37365
2183.13493	0.37274
2181.20637	0.37184
2179.27781	0.37115
2177.34924	0.37071
2175.42068	0.37041
2173.49211	0.37000
2171.56355	0.36948
2169.63498	0.36921
2167.70642	0.36928
2165.77785	0.36944
2163.84929	0.36949
2161.92073	0.36944
2159.99216	0.36939
2158.06360	0.36932
2156.13503	0.36904
2154.20647	0.36847
2152.27790	0.36768
2150.34934	0.36670
2148.42077	0.36554
2146.49221	0.36442
2144.56365	0.36335
2142.63508	0.36217
2140.70652	0.36098
2138.77795	0.36001
2136.84939	0.35929
2134.92082	0.35868
2132.99226	0.35798
2131.06369	0.35730
2129.13513	0.35693
2127.20657	0.35690
2125.27800	0.35710
2123.34944	0.35715
2121.42087	0.35666
2119.49231	0.35603
2117.56374	0.35574
2115.63518	0.35559
2113.70661	0.35516
2111.77805	0.35439
2109.84949	0.35353
2107.92092	0.35274
2105.99236	0.35193
2104.06379	0.35084
2102.13523	0.34940
2100.20666	0.34810
2098.27810	0.34729
2096.34953	0.34668
2094.42097	0.34602
2092.49241	0.34526
2090.56384	0.34444
2088.63528	0.34395
2086.70671	0.34383
2084.77815	0.34373
2082.84958	0.34338
2080.92102	0.34271
2078.99245	0.34199
2077.06389	0.34155
2075.13533	0.34119
2073.20676	0.34058
2071.27820	0.33975
2069.34963	0.33895
2067.42107	0.33808
2065.49250	0.33700
2063.56394	0.33602
2061.63537	0.33528
2059.70681	0.33454
2057.77825	0.33376
2055.84968	0.33293
2053.92112	0.33212
2051.99255	0.33163
2050.06399	0.33127
2048.13542	0.33046
2046.20686	0.32914
2044.27830	0.32789
2042.34973	0.32692
2040.42117	0.32595
2038.49260	0.32484
2036.56404	0.32377
2034.63547	0.32268
2032.70691	0.32140
2030.77834	0.31998
2028.84978	0.31866
2026.92122	0.31764
2024.99265	0.31675
2023.06409	0.31560
2021.13552	0.31427
2019.20696	0.31316
2017.27839	0.31247
2015.34983	0.31225
2013.42126	0.31237
2011.49270	0.31249
2009.56414	0.31235
2007.63557	0.31201
2005.70701	0.31161
2003.77844	0.31111
2001.84988	0.31045
1999.92131	0.30954
1997.99275	0.30846
1996.06418	0.30739
1994.13562	0.30628
1992.20706	0.30493
1990.27849	0.30339
1988.34993	0.30187
1986.42136	0.30051
1984.49280	0.29939
1982.56423	0.29840
1980.63567	0.29741
1978.70710	0.29662
1976.77854	0.29620
1974.84998	0.29601
1972.92141	0.29591
1970.99285	0.29588
1969.06428	0.29580
1967.13572	0.29560
1965.20715	0.29527
1963.27859	0.29471
1961.35002	0.29388
1959.42146	0.29282
1957.49290	0.29161
1955.56433	0.29034
1953.63577	0.28890
1951.70720	0.28708
1949.77864	0.28502
1947.85007	0.28321
1945.92151	0.28178
1943.99294	0.28038
1942.06438	0.27885
1940.13582	0.27774
1938.20725	0.27718
1936.27869	0.27676
1934.35012	0.27638
1932.42156	0.27610
1930.49299	0.27598
1928.56443	0.27599
1926.63586	0.27606
1924.70730	0.27603
1922.77874	0.27560
1920.85017	0.27476
1918.92161	0.27374
1916.99304	0.27257
1915.06448	0.27124
1913.13591	0.26986
1911.20735	0.26852
1909.27878	0.26706
1907.35022	0.26526
1905.42166	0.26344
1903.49309	0.26207
1901.56453	0.26108
1899.63596	0.26033
1897.70740	0.25975
1895.77883	0.25942
1893.85027	0.25938
1891.92171	0.25932
1889.99314	0.25914
1888.06458	0.25903
1886.13601	0.25893
1884.20745	0.25860
1882.27888	0.25800
1880.35032	0.25725
1878.42175	0.25623
1876.49319	0.25494
1874.56463	0.25367
1872.63606	0.25255
1870.70750	0.25126
1868.77893	0.24946
1866.85037	0.24768
1864.92180	0.24645
1862.99324	0.24561
1861.06467	0.24498
1859.13611	0.24452
1857.20755	0.24417
1855.27898	0.24400
1853.35042	0.24409
1851.42185	0.24437
1849.49329	0.24465
1847.56472	0.24464
1845.63616	0.24438
1843.70759	0.24404
1841.77903	0.24354
1839.85047	0.24277
1837.92190	0.24167
1835.99334	0.24031
1834.06477	0.23890
1832.13621	0.23741
1830.20764	0.23554
1828.27908	0.23379
1826.35051	0.23252
1824.42195	0.23129
1822.49339	0.23015
1820.56482	0.22933
1818.63626	0.22883
1816.70769	0.22849
1814.77913	0.22838
1812.85056	0.22855
1810.92200	0.22891
1808.99343	0.22930
1807.06487	0.22939
1805.13631	0.22915
1803.20774	0.22868
1801.27918	0.22801
1799.35061	0.22719
1797.42205	0.22630
1795.49348	0.22532
1793.56492	0.22421
1791.63635	0.22321
1789.70779	0.22224
1787.77923	0.22132
1785.85066	0.22064
1783.92210	0.22030
1781.99353	0.22039
1780.06497	0.22090
1778.13640	0.22155
1776.20784	0.22212
1774.27927	0.22293
1772.35071	0.22439
1770.42215	0.22588
1768.49358	0.22693
1766.56502	0.22768
1764.63645	0.22812
1762.70789	0.22861
1760.77932	0.22971
1758.85076	0.23118
1756.92220	0.23330
1754.99363	0.23582
1753.06507	0.23868
1751.13650	0.24362
1749.20794	0.25084
1747.27937	0.25750
1745.35081	0.26305
1743.42224	0.26823
1741.49368	0.27323
1739.56512	0.27776
1737.63655	0.28080
1735.70799	0.28297
1733.77942	0.28655
1731.85086	0.28988
1729.92229	0.29219
1727.99373	0.29464
1726.06516	0.29715
1724.13660	0.30048
1722.20804	0.30421
1720.27947	0.30794
1718.35091	0.31404
1716.42234	0.32451
1714.49378	0.33372
1712.56521	0.34152
1710.63665	0.35058
1708.70808	0.36146
1706.77952	0.37760
1704.85096	0.39937
1702.92239	0.41983
1700.99383	0.45002
1699.06526	0.49868
1697.13670	0.54555
1695.20813	0.59281
1693.27957	0.62930
1691.35100	0.65976
1689.42244	0.69752
1687.49388	0.73408
1685.56531	0.77325
1683.63675	0.83712
1681.70818	0.88615
1679.77962	0.91567
1677.85105	0.94299
1675.92249	0.97434
1673.99392	1.00881
1672.06536	1.03722
1670.13680	1.06905
1668.20823	1.10346
1666.27967	1.12273
1664.35110	1.13912
1662.42254	1.16238
1660.49397	1.18387
1658.56541	1.19809
1656.63684	1.20640
1654.70828	1.21245
1652.77972	1.22492
1650.85115	1.23464
1648.92259	1.23722
1646.99402	1.23685
1645.06546	1.23384
1643.13689	1.22966
1641.20833	1.22782
1639.27976	1.22766
1637.35120	1.22727
1635.42264	1.22282
1633.49407	1.21583
1631.56551	1.21028
1629.63694	1.20272
1627.70838	1.19220
1625.77981	1.18069
1623.85125	1.16634
1621.92269	1.14675
1619.99412	1.12725
1618.06556	1.10190
1616.13699	1.06228
1614.20843	1.02827
1612.27986	1.00076
1610.35130	0.97124
1608.42273	0.94141
1606.49417	0.91605
1604.56561	0.89558
1602.63704	0.87887
1600.70848	0.86651
1598.77991	0.85746
1596.85135	0.85002
1594.92278	0.84369
1592.99422	0.83885
1591.06565	0.83601
1589.13709	0.83516
1587.20853	0.83621
1585.27996	0.83938
1583.35140	0.84536
1581.42283	0.85359
1579.49427	0.86260
1577.56570	0.87460
1575.63714	0.89223
1573.70857	0.90534
1571.78001	0.91542
1569.85145	0.93248
1567.92288	0.95293
1565.99432	0.96895
1564.06575	0.98370
1562.13719	0.99549
1560.20862	1.01060
1558.28006	1.04333
1556.35149	1.05882
1554.42293	1.06462
1552.49437	1.07032
1550.56580	1.07472
1548.63724	1.07708
1546.70867	1.07729
1544.78011	1.07557
1542.85154	1.07292
1540.92298	1.07000
1538.99441	1.06225
1537.06585	1.05565
1535.13729	1.05004
1533.20872	1.04278
1531.28016	1.03472
1529.35159	1.02780
1527.42303	1.02114
1525.49446	1.01518
1523.56590	1.01238
1521.63733	1.01363
1519.70877	1.01616
1517.78021	1.01346
1515.85164	1.00274
1513.92308	0.98735
1511.99451	0.97059
1510.06595	0.95364
1508.13738	0.92680
1506.20882	0.88049
1504.28025	0.85494
1502.35169	0.83837
1500.42313	0.81911
1498.49456	0.79449
1496.56600	0.76597
1494.63743	0.74395
1492.70887	0.72914
1490.78030	0.71276
1488.85174	0.69145
1486.92317	0.67551
1484.99461	0.66604
1483.06605	0.65944
1481.13748	0.65501
1479.20892	0.65350
1477.28035	0.65575
1475.35179	0.66289
1473.42322	0.67734
1471.49466	0.69345
1469.56610	0.70212
1467.63753	0.70771
1465.70897	0.71452
1463.78040	0.72180
1461.85184	0.72618
1459.92327	0.72923
1457.99471	0.73714
1456.06614	0.74984
1454.13758	0.75439
1452.20902	0.75491
1450.28045	0.75493
1448.35189	0.75456
1446.42332	0.75283
1444.49476	0.74987
1442.56619	0.74594
1440.63763	0.74142
1438.70906	0.73657
1436.78050	0.72976
1434.85194	0.72108
1432.92337	0.71279
1430.99481	0.70375
1429.06624	0.69454
1427.13768	0.68828
1425.20911	0.68515
1423.28055	0.68396
1421.35198	0.68363
1419.42342	0.68424
1417.49486	0.68549
1415.56629	0.68594
1413.63773	0.68614
1411.70916	0.68624
1409.78060	0.68610
1407.85203	0.68675
1405.92347	0.68957
1403.99490	0.69362
1402.06634	0.69627
1400.13778	0.69840
1398.20921	0.70166
1396.28065	0.70528
1394.35208	0.70828
1392.42352	0.71037
1390.49495	0.71268
1388.56639	0.71839
1386.63782	0.72948
1384.70926	0.74101
1382.78070	0.74956
1380.85213	0.75513
1378.92357	0.75701
1376.99500	0.75432
1375.06644	0.74613
1373.13787	0.73381
1371.20931	0.72081
1369.28074	0.70615
1367.35218	0.68975
1365.42362	0.67452
1363.49505	0.65964
1361.56649	0.64545
1359.63792	0.63538
1357.70936	0.62870
1355.78079	0.62352
1353.85223	0.61904
1351.92366	0.61496
1349.99510	0.61109
1348.06654	0.60751
1346.13797	0.60451
1344.20941	0.60237
1342.28084	0.60134
1340.35228	0.60183
1338.42371	0.60423
1336.49515	0.60826
1334.56659	0.61410
1332.63802	0.62208
1330.70946	0.63155
1328.78089	0.64085
1326.85233	0.64830
1324.92376	0.65333
1322.99520	0.65695
1321.06663	0.66050
1319.13807	0.66413
1317.20951	0.66686
1315.28094	0.66793
1313.35238	0.66767
1311.42381	0.66649
1309.49525	0.66462
1307.56668	0.66199
1305.63812	0.65824
1303.70955	0.65370
1301.78099	0.64903
1299.85243	0.64421
1297.92386	0.63884
1295.99530	0.63354
1294.06673	0.62975
1292.13817	0.62815
1290.20960	0.62827
1288.28104	0.62908
1286.35247	0.63001
1284.42391	0.63102
1282.49535	0.63195
1280.56678	0.63287
1278.63822	0.63391
1276.70965	0.63491
1274.78109	0.63620
1272.85252	0.63849
1270.92396	0.64174
1268.99539	0.64501
1267.06683	0.64771
1265.13827	0.64969
1263.20970	0.65080
1261.28114	0.65107
1259.35257	0.65116
1257.42401	0.65207
1255.49544	0.65414
1253.56688	0.65710
1251.63831	0.66089
1249.70975	0.66536
1247.78119	0.66997
1245.85262	0.67407
1243.92406	0.67720
1241.99549	0.67920
1240.06693	0.68004
1238.13836	0.67955
1236.20980	0.67725
1234.28123	0.67286
1232.35267	0.66625
1230.42411	0.65702
1228.49554	0.64580
1226.56698	0.63406
1224.63841	0.62235
1222.70985	0.61064
1220.78128	0.59931
1218.85272	0.58890
1216.92415	0.58010
1214.99559	0.57414
1213.06703	0.57185
1211.13846	0.57290
1209.20990	0.57593
1207.28133	0.57887
1205.35277	0.57973
1203.42420	0.57778
1201.49564	0.57375
1199.56708	0.56849
1197.63851	0.56251
1195.70995	0.55642
1193.78138	0.55039
1191.85282	0.54456
1189.92425	0.53939
1187.99569	0.53517
1186.06712	0.53206
1184.13856	0.53039
1182.21000	0.53076
1180.28143	0.53377
1178.35287	0.53956
1176.42430	0.54809
1174.49574	0.55917
1172.56717	0.57187
1170.63861	0.58575
1168.71004	0.60186
1166.78148	0.62118
1164.85292	0.64283
1162.92435	0.66408
1160.99579	0.68176
1159.06722	0.69324
1157.13866	0.69736
1155.21009	0.69432
1153.28153	0.68477
1151.35296	0.67040
1149.42440	0.65370
1147.49584	0.63667
1145.56727	0.62095
1143.63871	0.60788
1141.71014	0.59827
1139.78158	0.59256
1137.85301	0.59069
1135.92445	0.59252
1133.99588	0.59821
1132.06732	0.60788
1130.13876	0.62071
1128.21019	0.63524
1126.28163	0.65045
1124.35306	0.66623
1122.42450	0.68218
1120.49593	0.69721
1118.56737	0.71042
1116.63880	0.72036
1114.71024	0.72534
1112.78168	0.72655
1110.85311	0.72647
1108.92455	0.72551
1106.99598	0.72363
1105.06742	0.72147
1103.13885	0.71949
1101.21029	0.71818
1099.28172	0.71837
1097.35316	0.72052
1095.42460	0.72529
1093.49603	0.73384
1091.56747	0.74635
1089.63890	0.76217
1087.71034	0.78177
1085.78177	0.80533
1083.85321	0.83097
1081.92464	0.85560
1079.99608	0.87488
1078.06752	0.88574
1076.13895	0.88900
1074.21039	0.88531
1072.28182	0.87466
1070.35326	0.86055
1068.42469	0.84707
1066.49613	0.83483
1064.56756	0.82325
1062.63900	0.81223
1060.71044	0.80143
1058.78187	0.79105
1056.85331	0.78112
1054.92474	0.77128
1052.99618	0.76268
1051.06761	0.75713
1049.13905	0.75506
1047.21049	0.75578
1045.28192	0.75920
1043.35336	0.76600
1041.42479	0.77575
1039.49623	0.78625
1037.56766	0.79499
1035.63910	0.80120
1033.71053	0.80572
1031.78197	0.80824
1029.85341	0.80710
1027.92484	0.80176
1025.99628	0.79286
1024.06771	0.78134
1022.13915	0.76893
1020.21058	0.75692
1018.28202	0.74523
1016.35345	0.73340
1014.42489	0.72055
1012.49633	0.70474
1010.56776	0.68538
1008.63920	0.66419
1006.71063	0.64293
1004.78207	0.62323
1002.85350	0.60653
1000.92494	0.59289
998.99637	0.58171
997.06781	0.57250
995.13925	0.56475
993.21068	0.55750
991.28212	0.54966
989.35355	0.54066
987.42499	0.53023
985.49642	0.51858
983.56786	0.50718
981.63929	0.49779
979.71073	0.49052
977.78217	0.48427
975.85360	0.47857
973.92504	0.47299
971.99647	0.46649
970.06791	0.45905
968.13934	0.45195
966.21078	0.44632
964.28221	0.44309
962.35365	0.44332
960.42509	0.44773
958.49652	0.45567
956.56796	0.46382
954.63939	0.46785
952.71083	0.46639
950.78226	0.46106
948.85370	0.45424
946.92513	0.44793
944.99657	0.44304
943.06801	0.43973
941.13944	0.43788
939.21088	0.43738
937.28231	0.43813
935.35375	0.43930
933.42518	0.43986
931.49662	0.44018
929.56805	0.44087
927.63949	0.44156
925.71093	0.44179
923.78236	0.44130
921.85380	0.43942
919.92523	0.43554
917.99667	0.43025
916.06810	0.42463
914.13954	0.41871
912.21098	0.41256
910.28241	0.40754
908.35385	0.40483
906.42528	0.40443
904.49672	0.40604
902.56815	0.40930
900.63959	0.41350
898.71102	0.41767
896.78246	0.42149
894.85390	0.42535
892.92533	0.42919
890.99677	0.43283
889.06820	0.43648
887.13964	0.43992
885.21107	0.44308
883.28251	0.44644
881.35394	0.44988
879.42538	0.45251
877.49682	0.45360
875.56825	0.45314
873.63969	0.45190
871.71112	0.44995
869.78256	0.44662
867.85399	0.44228
865.92543	0.43820
863.99686	0.43514
862.06830	0.43336
860.13974	0.43285
858.21117	0.43351
856.28261	0.43551
854.35404	0.43906
852.42548	0.44366
850.49691	0.44821
848.56835	0.45199
846.63978	0.45499
844.71122	0.45745
842.78266	0.45933
840.85409	0.46049
838.92553	0.46091
836.99696	0.46027
835.06840	0.45844
833.13983	0.45572
831.21127	0.45227
829.28270	0.44882
827.35414	0.44646
825.42558	0.44555
823.49701	0.44604
821.56845	0.44803
819.63988	0.45150
817.71132	0.45642
815.78275	0.46273
813.85419	0.46997
811.92562	0.47751
809.99706	0.48530
808.06850	0.49299
806.13993	0.49965
804.21137	0.50482
802.28280	0.50892
800.35424	0.51195
798.42567	0.51280
796.49711	0.51074
794.56854	0.50672
792.63998	0.50211
790.71142	0.49754
788.78285	0.49330
786.85429	0.48945
784.92572	0.48625
782.99716	0.48451
781.06859	0.48489
779.14003	0.48725
777.21147	0.49110
775.28290	0.49620
773.35434	0.50178
771.42577	0.50740
769.49721	0.51386
767.56864	0.52099
765.64008	0.52796
763.71151	0.53507
761.78295	0.54258
759.85439	0.55021
757.92582	0.55770
755.99726	0.56447
754.06869	0.56993
752.14013	0.57424
750.21156	0.57750
748.28300	0.57913
746.35443	0.57953
744.42587	0.57991
742.49731	0.58034
740.56874	0.58022
738.64018	0.57991
736.71161	0.58029
734.78305	0.58178
732.85448	0.58454
730.92592	0.58866
728.99735	0.59325
727.06879	0.59779
725.14023	0.60222
723.21166	0.60581
721.28310	0.60830
719.35453	0.60945
717.42597	0.60933
715.49740	0.60944
713.56884	0.60985
711.64027	0.60880
709.71171	0.60658
707.78315	0.60478
705.85458	0.60297
703.92602	0.60066
701.99745	0.59845
700.06889	0.59601
698.14032	0.59263
696.21176	0.58860
694.28319	0.58454
692.35463	0.58100
690.42607	0.57867
688.49750	0.57771
686.56894	0.57802
684.64037	0.58006
682.71181	0.58380
680.78324	0.58758
678.85468	0.59063
676.92611	0.59505
674.99755	0.60141
673.06899	0.60707
671.14042	0.61161
669.21186	0.62007
667.28329	0.63111
665.35473	0.63425
663.42616	0.63635
661.49760	0.64181
659.56903	0.64738
657.64047	0.65037
655.71191	0.65230
653.78334	0.65360
651.85478	0.65330
649.92621	0.65122
647.99765	0.64834
646.06908	0.64581
644.14052	0.64337
642.21195	0.64078
640.28339	0.63732
638.35483	0.63239
636.42626	0.62821
634.49770	0.62621
632.56913	0.62496
630.64057	0.62364
628.71200	0.62280
626.78344	0.62308
624.85488	0.62495
622.92631	0.62922
620.99775	0.63509
619.06918	0.63974
617.14062	0.64224
615.21205	0.64390
613.28349	0.64564
611.35492	0.64719
609.42636	0.64749
607.49780	0.64521
605.56923	0.63877
603.64067	0.62933
601.71210	0.62219
599.78354	0.62040
