3997.91406	0.40200
3995.98550	0.40262
3994.05693	0.40394
3992.12837	0.40581
3990.19980	0.40687
3988.27124	0.40558
3986.34268	0.40321
3984.41411	0.40265
3982.48555	0.40424
3980.55698	0.40586
3978.62842	0.40619
3976.69985	0.40569
3974.77129	0.40550
3972.84272	0.40587
3970.91416	0.40607
3968.98560	0.40614
3967.05703	0.40670
3965.12847	0.40713
3963.19990	0.40687
3961.27134	0.40639
3959.34277	0.40524
3957.41421	0.40318
3955.48564	0.40168
3953.55708	0.40161
3951.62852	0.40199
3949.69995	0.40154
3947.77139	0.40036
3945.84282	0.39907
3943.91426	0.39814
3941.98569	0.39778
3940.05713	0.39702
3938.12856	0.39594
3936.20000	0.39604
3934.27144	0.39734
3932.34287	0.39759
3930.41431	0.39600
3928.48574	0.39442
3926.55718	0.39329
3924.62861	0.39249
3922.70005	0.39192
3920.77148	0.39134
3918.84292	0.39060
3916.91436	0.38984
3914.98579	0.38948
3913.05723	0.38926
3911.12866	0.38919
3909.20010	0.38861
3907.27153	0.38636
3905.34297	0.38330
3903.41440	0.38236
3901.48584	0.38418
3899.55728	0.38651
3897.62871	0.38739
3895.70015	0.38662
3893.77158	0.38517
3891.84302	0.38406
3889.91445	0.38305
3887.98589	0.38198
3886.05733	0.38211
3884.12876	0.38223
3882.20020	0.38086
3880.27163	0.38064
3878.34307	0.38070
3876.41450	0.37914
3874.48594	0.37750
3872.55737	0.37710
3870.62881	0.37753
3868.70025	0.37686
3866.77168	0.37530
3864.84312	0.37526
3862.91455	0.37489
3860.98599	0.37221
3859.05742	0.36979
3857.12886	0.36861
3855.20029	0.36917
3853.27173	0.37309
3851.34317	0.37406
3849.41460	0.37136
3847.48604	0.36835
3845.55747	0.36579
3843.62891	0.36351
3841.70034	0.36189
3839.77178	0.36219
3837.84321	0.36483
3835.91465	0.36750
3833.98609	0.36887
3832.05752	0.36892
3830.12896	0.36784
3828.20039	0.36684
3826.27183	0.36595
3824.34326	0.36409
3822.41470	0.36317
3820.48613	0.36458
3818.55757	0.36399
3816.62901	0.36353
3814.70044	0.36524
3812.77188	0.36580
3810.84331	0.36449
3808.91475	0.36269
3806.98618	0.36276
3805.05762	0.36365
3803.12905	0.36440
3801.20049	0.36671
3799.27193	0.36750
3797.34336	0.36722
3795.41480	0.36734
3793.48623	0.36648
3791.55767	0.36501
3789.62910	0.36357
3787.70054	0.36220
3785.77197	0.36134
3783.84341	0.36042
3781.91485	0.35895
3779.98628	0.35843
3778.05772	0.35878
3776.12915	0.35790
3774.20059	0.35624
3772.27202	0.35578
3770.34346	0.35734
3768.41489	0.35815
3766.48633	0.35729
3764.55777	0.35675
3762.62920	0.35587
3760.70064	0.35454
3758.77207	0.35400
3756.84351	0.35384
3754.91494	0.35356
3752.98638	0.35400
3751.05781	0.35521
3749.12925	0.35375
3747.20069	0.35086
3745.27212	0.35012
3743.34356	0.35089
3741.41499	0.35042
3739.48643	0.34952
3737.55786	0.34923
3735.62930	0.35038
3733.70074	0.35221
3731.77217	0.35251
3729.84361	0.35194
3727.91504	0.35193
3725.98648	0.35250
3724.05791	0.35292
3722.12935	0.35364
3720.20078	0.35470
3718.27222	0.35482
3716.34366	0.35350
3714.41509	0.35238
3712.48653	0.35402
3710.55796	0.35615
3708.62940	0.35532
3706.70083	0.35460
3704.77227	0.35438
3702.84370	0.35499
3700.91514	0.35676
3698.98658	0.35729
3697.05801	0.35621
3695.12945	0.35467
3693.20088	0.35349
3691.27232	0.35415
3689.34375	0.35860
3687.41519	0.36240
3685.48662	0.36303
3683.55806	0.36298
3681.62950	0.36325
3679.70093	0.36358
3677.77237	0.36440
3675.84380	0.36913
3673.91524	0.37445
3671.98667	0.37662
3670.05811	0.38163
3668.12954	0.38624
3666.20098	0.38702
3664.27242	0.38844
3662.34385	0.39172
3660.41529	0.39483
3658.48672	0.39723
3656.55816	0.40132
3654.62959	0.40495
3652.70103	0.40611
3650.77246	0.41088
3648.84390	0.42469
3646.91534	0.43292
3644.98677	0.43428
3643.05821	0.43543
3641.12964	0.43852
3639.20108	0.44333
3637.27251	0.44855
3635.34395	0.45336
3633.41538	0.45726
3631.48682	0.46067
3629.55826	0.46903
3627.62969	0.48098
3625.70113	0.48602
3623.77256	0.48811
3621.84400	0.49111
3619.91543	0.49818
3617.98687	0.50720
3616.05830	0.51224
3614.12974	0.51590
3612.20118	0.52042
3610.27261	0.52536
3608.34405	0.53208
3606.41548	0.53922
3604.48692	0.54392
3602.55835	0.54839
3600.62979	0.55522
3598.70123	0.56309
3596.77266	0.57030
3594.84410	0.57792
3592.91553	0.58466
3590.98697	0.58822
3589.05840	0.59206
3587.12984	0.60007
3585.20127	0.60679
3583.27271	0.61071
3581.34415	0.61568
3579.41558	0.62259
3577.48702	0.63015
3575.55845	0.63740
3573.62989	0.64395
3571.70132	0.64935
3569.77276	0.65441
3567.84419	0.66285
3565.91563	0.67277
3563.98707	0.67790
3562.05850	0.68254
3560.12994	0.68897
3558.20137	0.69584
3556.27281	0.70199
3554.34424	0.70838
3552.41568	0.71693
3550.48711	0.72520
3548.55855	0.73110
3546.62999	0.73742
3544.70142	0.74628
3542.77286	0.75534
3540.84429	0.76254
3538.91573	0.76898
3536.98716	0.77763
3535.05860	0.78818
3533.13003	0.79686
3531.20147	0.80452
3529.27291	0.81299
3527.34434	0.82105
3525.41578	0.82925
3523.48721	0.83818
3521.55865	0.84544
3519.63008	0.85121
3517.70152	0.85919
3515.77295	0.86934
3513.84439	0.87891
3511.91583	0.88722
3509.98726	0.89438
3508.05870	0.90093
3506.13013	0.90829
3504.20157	0.92014
3502.27300	0.93803
3500.34444	0.95579
3498.41587	0.96782
3496.48731	0.97476
3494.55875	0.98265
3492.63018	0.99402
3490.70162	1.00407
3488.77305	1.01082
3486.84449	1.01894
3484.91592	1.02954
3482.98736	1.03881
3481.05879	1.04459
3479.13023	1.04706
3477.20167	1.04985
3475.27310	1.05622
3473.34454	1.06366
3471.41597	1.06909
3469.48741	1.07429
3467.55884	1.07944
3465.63028	1.08313
3463.70171	1.08918
3461.77315	1.09863
3459.84459	1.10394
3457.91602	1.10288
3455.98746	1.10351
3454.05889	1.10936
3452.13033	1.11688
3450.20176	1.12470
3448.27320	1.13106
3446.34464	1.13252
3444.41607	1.13211
3442.48751	1.13580
3440.55894	1.14275
3438.63038	1.14763
3436.70181	1.14829
3434.77325	1.14765
3432.84468	1.15041
3430.91612	1.15620
3428.98756	1.16156
3427.05899	1.16450
3425.13043	1.16345
3423.20186	1.16048
3421.27330	1.16025
3419.34473	1.16212
3417.41617	1.16230
3415.48760	1.16159
3413.55904	1.16095
3411.63048	1.16040
3409.70191	1.16252
3407.77335	1.16587
3405.84478	1.16490
3403.91622	1.16150
3401.98765	1.16386
3400.05909	1.17249
3398.13052	1.18049
3396.20196	1.18288
3394.27340	1.18126
3392.34483	1.18176
3390.41627	1.18401
3388.48770	1.18409
3386.55914	1.18507
3384.63057	1.18953
3382.70201	1.19467
3380.77344	1.19806
3378.84488	1.19838
3376.91632	1.19605
3374.98775	1.19642
3373.05919	1.20285
3371.13062	1.21016
3369.20206	1.21415
3367.27349	1.21475
3365.34493	1.21158
3363.41636	1.21195
3361.48780	1.22129
3359.55924	1.23125
3357.63067	1.23813
3355.70211	1.24259
3353.77354	1.23968
3351.84498	1.23453
3349.91641	1.23477
3347.98785	1.23736
3346.05928	1.24076
3344.13072	1.24712
3342.20216	1.25436
3340.27359	1.25992
3338.34503	1.26365
3336.41646	1.26548
3334.48790	1.26681
3332.55933	1.27183
3330.63077	1.28377
3328.70220	1.29796
3326.77364	1.30343
3324.84508	1.29954
3322.91651	1.29952
3320.98795	1.30877
3319.05938	1.31928
3317.13082	1.32624
3315.20225	1.33049
3313.27369	1.33366
3311.34513	1.33911
3309.41656	1.34624
3307.48800	1.34878
3305.55943	1.34504
3303.63087	1.34346
3301.70230	1.34774
3299.77374	1.35329
3297.84517	1.36124
3295.91661	1.36918
3293.98805	1.36950
3292.05948	1.36601
3290.13092	1.36320
3288.20235	1.35770
3286.27379	1.35103
3284.34522	1.35014
3282.41666	1.35473
3280.48809	1.35816
3278.55953	1.35719
3276.63097	1.35129
3274.70240	1.34334
3272.77384	1.33841
3270.84527	1.33565
3268.91671	1.33236
3266.98814	1.33001
3265.05958	1.32714
3263.13101	1.31828
3261.20245	1.30592
3259.27389	1.29534
3257.34532	1.28428
3255.41676	1.27185
3253.48819	1.26166
3251.55963	1.25247
3249.63106	1.24161
3247.70250	1.23116
3245.77393	1.22328
3243.84537	1.21819
3241.91681	1.21247
3239.98824	1.20248
3238.05968	1.19177
3236.13111	1.18326
3234.20255	1.17629
3232.27398	1.17168
3230.34542	1.16909
3228.41685	1.16698
3226.48829	1.16372
3224.55973	1.15835
3222.63116	1.15191
3220.70260	1.14549
3218.77403	1.13937
3216.84547	1.13551
3214.91690	1.13519
3212.98834	1.13333
3211.05977	1.12534
3209.13121	1.11397
3207.20265	1.10349
3205.27408	1.09589
3203.34552	1.08992
3201.41695	1.08394
3199.48839	1.07822
3197.55982	1.07197
3195.63126	1.06530
3193.70269	1.05892
3191.77413	1.05119
3189.84557	1.04283
3187.91700	1.03553
3185.98844	1.02867
3184.05987	1.02326
3182.13131	1.01856
3180.20274	1.01016
3178.27418	0.99889
3176.34562	0.99050
3174.41705	0.98648
3172.48849	0.98378
3170.55992	0.98004
3168.63136	0.97525
3166.70279	0.97037
3164.77423	0.96607
3162.84566	0.96316
3160.91710	0.96081
3158.98854	0.95717
3157.05997	0.95273
3155.13141	0.94864
3153.20284	0.94486
3151.27428	0.94049
3149.34571	0.93511
3147.41715	0.92999
3145.48858	0.92627
3143.56002	0.92426
3141.63146	0.92412
3139.70289	0.92548
3137.77433	0.92648
3135.84576	0.92537
3133.91720	0.92361
3131.98863	0.92317
3130.06007	0.92378
3128.13150	0.92418
3126.20294	0.92355
3124.27438	0.92274
3122.34581	0.92277
3120.41725	0.92376
3118.48868	0.92516
3116.56012	0.92613
3114.63155	0.92681
3112.70299	0.92777
3110.77442	0.92825
3108.84586	0.92731
3106.91730	0.92570
3104.98873	0.92432
3103.06017	0.92327
3101.13160	0.92264
3099.20304	0.92163
3097.27447	0.91942
3095.34591	0.91586
3093.41734	0.91144
3091.48878	0.90819
3089.56022	0.90726
3087.63165	0.90721
3085.70309	0.90550
3083.77452	0.90156
3081.84596	0.89705
3079.91739	0.89301
3077.98883	0.88956
3076.06026	0.88669
3074.13170	0.88398
3072.20314	0.88224
3070.27457	0.88193
3068.34601	0.88003
3066.41744	0.87515
3064.48888	0.87026
3062.56031	0.86672
3060.63175	0.86347
3058.70318	0.85953
3056.77462	0.85430
3054.84606	0.84843
3052.91749	0.84435
3050.98893	0.84249
3049.06036	0.83883
3047.13180	0.83204
3045.20323	0.82622
3043.27467	0.82314
3041.34610	0.82096
3039.41754	0.81870
3037.48898	0.81633
3035.56041	0.81278
3033.63185	0.80794
3031.70328	0.80356
3029.77472	0.80040
3027.84615	0.79752
3025.91759	0.79388
3023.98903	0.78960
3022.06046	0.78567
3020.13190	0.78322
3018.20333	0.78230
3016.27477	0.78131
3014.34620	0.77920
3012.41764	0.77608
3010.48907	0.77238
3008.56051	0.76906
3006.63195	0.76666
3004.70338	0.76509
3002.77482	0.76426
3000.84625	0.76407
2998.91769	0.76426
2996.98912	0.76496
2995.06056	0.76659
2993.13199	0.76887
2991.20343	0.77167
2989.27487	0.77538
2987.34630	0.78008
2985.41774	0.78593
2983.48917	0.79318
2981.56061	0.80148
2979.63204	0.80991
2977.70348	0.81775
2975.77491	0.82532
2973.84635	0.83347
2971.91779	0.84256
2969.98922	0.85221
2968.06066	0.86109
2966.13209	0.86785
2964.20353	0.87299
2962.27496	0.87697
2960.34640	0.87881
2958.41783	0.87771
2956.48927	0.87372
2954.56071	0.86899
2952.63214	0.86521
2950.70358	0.86174
2948.77501	0.85958
2946.84645	0.86070
2944.91788	0.86506
2942.98932	0.87157
2941.06075	0.88012
2939.13219	0.89046
2937.20363	0.90034
2935.27506	0.90914
2933.34650	0.91818
2931.41793	0.92626
2929.48937	0.93238
2927.56080	0.93807
2925.63224	0.94364
2923.70367	0.94738
2921.77511	0.94763
2919.84655	0.94368
2917.91798	0.93426
2915.98942	0.91721
2914.06085	0.89448
2912.13229	0.87190
2910.20372	0.85247
2908.27516	0.83644
2906.34659	0.82440
2904.41803	0.81589
2902.48947	0.80921
2900.56090	0.80390
2898.63234	0.79959
2896.70377	0.79511
2894.77521	0.79097
2892.84664	0.78763
2890.91808	0.78381
2888.98952	0.77886
2887.06095	0.77390
2885.13239	0.77060
2883.20382	0.76951
2881.27526	0.76999
2879.34669	0.77096
2877.41813	0.77111
2875.48956	0.77001
2873.56100	0.76753
2871.63244	0.76289
2869.70387	0.75669
2867.77531	0.75093
2865.84674	0.74647
2863.91818	0.74405
2861.98961	0.74459
2860.06105	0.74763
2858.13248	0.75253
2856.20392	0.75907
2854.27536	0.76647
2852.34679	0.77263
2850.41823	0.77236
2848.48966	0.75978
2846.56110	0.73679
2844.63253	0.71297
2842.70397	0.69446
2840.77540	0.68101
2838.84684	0.67147
2836.91828	0.66475
2834.98971	0.65934
2833.06115	0.65504
2831.13258	0.65188
2829.20402	0.64891
2827.27545	0.64536
2825.34689	0.64125
2823.41832	0.63718
2821.48976	0.63362
2819.56120	0.63042
2817.63263	0.62744
2815.70407	0.62454
2813.77550	0.62159
2811.84694	0.61934
2809.91837	0.61820
2807.98981	0.61692
2806.06124	0.61457
2804.13268	0.61165
2802.20412	0.60882
2800.27555	0.60636
2798.34699	0.60415
2796.41842	0.60215
2794.48986	0.60044
2792.56129	0.59859
2790.63273	0.59627
2788.70416	0.59337
2786.77560	0.58988
2784.84704	0.58667
2782.91847	0.58446
2780.98991	0.58278
2779.06134	0.58118
2777.13278	0.57918
2775.20421	0.57649
2773.27565	0.57397
2771.34708	0.57203
2769.41852	0.56982
2767.48996	0.56732
2765.56139	0.56546
2763.63283	0.56394
2761.70426	0.56215
2759.77570	0.56079
2757.84713	0.56015
2755.91857	0.55962
2753.99001	0.55910
2752.06144	0.55878
2750.13288	0.55845
2748.20431	0.55774
2746.27575	0.55675
2744.34718	0.55578
2742.41862	0.55477
2740.49005	0.55391
2738.56149	0.55313
2736.63293	0.55206
2734.70436	0.55091
2732.77580	0.54941
2730.84723	0.54733
2728.91867	0.54537
2726.99010	0.54364
2725.06154	0.54172
2723.13297	0.53976
2721.20441	0.53805
2719.27585	0.53674
2717.34728	0.53593
2715.41872	0.53523
2713.49015	0.53414
2711.56159	0.53283
2709.63302	0.53175
2707.70446	0.53111
2705.77589	0.53087
2703.84733	0.53078
2701.91877	0.53043
2699.99020	0.52995
2698.06164	0.52991
2696.13307	0.53006
2694.20451	0.52970
2692.27594	0.52923
2690.34738	0.52920
2688.41881	0.52916
2686.49025	0.52886
2684.56169	0.52843
2682.63312	0.52784
2680.70456	0.52709
2678.77599	0.52593
2676.84743	0.52417
2674.91886	0.52246
2672.99030	0.52136
2671.06173	0.52070
2669.13317	0.52056
2667.20461	0.52102
2665.27604	0.52119
2663.34748	0.52047
2661.41891	0.51947
2659.49035	0.51868
2657.56178	0.51781
2655.63322	0.51699
2653.70465	0.51653
2651.77609	0.51610
2649.84753	0.51559
2647.91896	0.51517
2645.99040	0.51473
2644.06183	0.51422
2642.13327	0.51340
2640.20470	0.51188
2638.27614	0.50980
2636.34757	0.50775
2634.41901	0.50583
2632.49045	0.50372
2630.56188	0.50160
2628.63332	0.49972
2626.70475	0.49821
2624.77619	0.49705
2622.84762	0.49571
2620.91906	0.49387
2618.99049	0.49204
2617.06193	0.49061
2615.13337	0.48930
2613.20480	0.48837
2611.27624	0.48803
2609.34767	0.48760
2607.41911	0.48688
2605.49054	0.48628
2603.56198	0.48619
2601.63342	0.48647
2599.70485	0.48640
2597.77629	0.48578
2595.84772	0.48494
2593.91916	0.48413
2591.99059	0.48358
2590.06203	0.48326
2588.13346	0.48296
2586.20490	0.48270
2584.27634	0.48251
2582.34777	0.48215
2580.41921	0.48149
2578.49064	0.48085
2576.56208	0.48036
2574.63351	0.47984
2572.70495	0.47935
2570.77638	0.47904
2568.84782	0.47884
2566.91926	0.47878
2564.99069	0.47894
2563.06213	0.47910
2561.13356	0.47893
2559.20500	0.47857
2557.27643	0.47858
2555.34787	0.47862
2553.41930	0.47802
2551.49074	0.47703
2549.56218	0.47632
2547.63361	0.47626
2545.70505	0.47629
2543.77648	0.47563
2541.84792	0.47459
2539.91935	0.47354
2537.99079	0.47243
2536.06222	0.47160
2534.13366	0.47109
2532.20510	0.47031
2530.27653	0.46921
2528.34797	0.46824
2526.41940	0.46736
2524.49084	0.46643
2522.56227	0.46535
2520.63371	0.46402
2518.70514	0.46261
2516.77658	0.46125
2514.84802	0.46010
2512.91945	0.45922
2510.99089	0.45836
2509.06232	0.45744
2507.13376	0.45675
2505.20519	0.45604
2503.27663	0.45494
2501.34806	0.45394
2499.41950	0.45355
2497.49094	0.45318
2495.56237	0.45207
2493.63381	0.45059
2491.70524	0.44968
2489.77668	0.44925
2487.84811	0.44879
2485.91955	0.44831
2483.99098	0.44775
2482.06242	0.44700
2480.13386	0.44613
2478.20529	0.44527
2476.27673	0.44453
2474.34816	0.44406
2472.41960	0.44372
2470.49103	0.44299
2468.56247	0.44189
2466.63391	0.44088
2464.70534	0.43985
2462.77678	0.43876
2460.84821	0.43804
2458.91965	0.43758
2456.99108	0.43696
2455.06252	0.43639
2453.13395	0.43598
2451.20539	0.43543
2449.27683	0.43481
2447.34826	0.43438
2445.41970	0.43415
2443.49113	0.43405
2441.56257	0.43380
2439.63400	0.43323
2437.70544	0.43291
2435.77687	0.43310
2433.84831	0.43336
2431.91975	0.43348
2429.99118	0.43340
2428.06262	0.43289
2426.13405	0.43222
2424.20549	0.43178
2422.27692	0.43110
2420.34836	0.43003
2418.41979	0.42935
2416.49123	0.42897
2414.56267	0.42819
2412.63410	0.42712
2410.70554	0.42619
2408.77697	0.42537
2406.84841	0.42434
2404.91984	0.42311
2402.99128	0.42213
2401.06271	0.42154
2399.13415	0.42071
2397.20559	0.41934
2395.27702	0.41796
2393.34846	0.41720
2391.41989	0.41699
2389.49133	0.41683
2387.56276	0.41634
2385.63420	0.41542
2383.70563	0.41446
2381.77707	0.41395
2379.84851	0.41377
2377.91994	0.41355
2375.99138	0.41277
2374.06281	0.41071
2372.13425	0.40816
2370.20568	0.40754
2368.27712	0.40845
2366.34855	0.40744
2364.41999	0.40514
2362.49143	0.40445
2360.56286	0.40291
2358.63430	0.39914
2356.70573	0.39641
2354.77717	0.39614
2352.84860	0.39772
2350.92004	0.39896
2348.99147	0.39857
2347.06291	0.39718
2345.13435	0.39637
2343.20578	0.39793
2341.27722	0.39998
2339.34865	0.40033
2337.42009	0.40053
2335.49152	0.40127
2333.56296	0.40093
2331.63440	0.39951
2329.70583	0.39857
2327.77727	0.39783
2325.84870	0.39700
2323.92014	0.39716
2321.99157	0.39801
2320.06301	0.39793
2318.13444	0.39654
2316.20588	0.39531
2314.27732	0.39515
2312.34875	0.39490
2310.42019	0.39362
2308.49162	0.39222
2306.56306	0.39134
2304.63449	0.39040
2302.70593	0.38945
2300.77736	0.38930
2298.84880	0.38949
2296.92024	0.38934
2294.99167	0.38909
2293.06311	0.38887
2291.13454	0.38875
2289.20598	0.38907
2287.27741	0.38966
2285.34885	0.39017
2283.42028	0.39038
2281.49172	0.39029
2279.56316	0.39014
2277.63459	0.38999
2275.70603	0.38973
2273.77746	0.38944
2271.84890	0.38900
2269.92033	0.38832
2267.99177	0.38770
2266.06320	0.38706
2264.13464	0.38614
2262.20608	0.38522
2260.27751	0.38463
2258.34895	0.38414
2256.42038	0.38355
2254.49182	0.38315
2252.56325	0.38293
2250.63469	0.38266
2248.70612	0.38257
2246.77756	0.38291
2244.84900	0.38334
2242.92043	0.38363
2240.99187	0.38397
2239.06330	0.38436
2237.13474	0.38452
2235.20617	0.38429
2233.27761	0.38388
2231.34904	0.38357
2229.42048	0.38315
2227.49192	0.38241
2225.56335	0.38162
2223.63479	0.38097
2221.70622	0.38039
2219.77766	0.37973
2217.84909	0.37905
2215.92053	0.37837
2213.99196	0.37767
2212.06340	0.37714
2210.13484	0.37685
2208.20627	0.37665
2206.27771	0.37651
2204.34914	0.37640
2202.42058	0.37618
2200.49201	0.37595
2198.56345	0.37597
2196.63488	0.37623
2194.70632	0.37641
2192.77776	0.37641
2190.84919	0.37644
2188.92063	0.37662
2186.99206	0.37658
2185.06350	0.37596
2183.13493	0.37515
2181.20637	0.37468
2179.27781	0.37422
2177.34924	0.37340
2175.42068	0.37260
2173.49211	0.37192
2171.56355	0.37094
2169.63498	0.36969
2167.70642	0.36857
2165.77785	0.36767
2163.84929	0.36674
2161.92073	0.36576
2159.99216	0.36493
2158.06360	0.36436
2156.13503	0.36384
2154.20647	0.36311
2152.27790	0.36225
2150.34934	0.36157
2148.42077	0.36120
2146.49221	0.36107
2144.56365	0.36092
2142.63508	0.36061
2140.70652	0.36030
2138.77795	0.36010
2136.84939	0.35994
2134.92082	0.35989
2132.99226	0.35994
2131.06369	0.35995
2129.13513	0.35996
2127.20657	0.36019
2125.27800	0.36066
2123.34944	0.36122
2121.42087	0.36181
2119.49231	0.36231
2117.56374	0.36258
2115.63518	0.36281
2113.70661	0.36325
2111.77805	0.36390
2109.84949	0.36438
2107.92092	0.36449
2105.99236	0.36443
2104.06379	0.36442
2102.13523	0.36453
2100.20666	0.36468
2098.27810	0.36479
2096.34953	0.36470
2094.42097	0.36451
2092.49241	0.36447
2090.56384	0.36442
2088.63528	0.36408
2086.70671	0.36359
2084.77815	0.36302
2082.84958	0.36225
2080.92102	0.36143
2078.99245	0.36063
2077.06389	0.35958
2075.13533	0.35825
2073.20676	0.35689
2071.27820	0.35555
2069.34963	0.35422
2067.42107	0.35292
2065.49250	0.35153
2063.56394	0.34997
2061.63537	0.34816
2059.70681	0.34645
2057.77825	0.34504
2055.84968	0.34356
2053.92112	0.34198
2051.99255	0.34063
2050.06399	0.33929
2048.13542	0.33771
2046.20686	0.33631
2044.27830	0.33552
2042.34973	0.33510
2040.42117	0.33480
2038.49260	0.33455
2036.56404	0.33431
2034.63547	0.33417
2032.70691	0.33403
2030.77834	0.33382
2028.84978	0.33376
2026.92122	0.33396
2024.99265	0.33411
2023.06409	0.33405
2021.13552	0.33388
2019.20696	0.33384
2017.27839	0.33400
2015.34983	0.33412
2013.42126	0.33417
2011.49270	0.33423
2009.56414	0.33430
2007.63557	0.33433
2005.70701	0.33416
2003.77844	0.33380
2001.84988	0.33345
1999.92131	0.33317
1997.99275	0.33290
1996.06418	0.33258
1994.13562	0.33252
1992.20706	0.33298
1990.27849	0.33343
1988.34993	0.33339
1986.42136	0.33314
1984.49280	0.33300
1982.56423	0.33292
1980.63567	0.33264
1978.70710	0.33219
1976.77854	0.33181
1974.84998	0.33159
1972.92141	0.33121
1970.99285	0.33042
1969.06428	0.32947
1967.13572	0.32862
1965.20715	0.32753
1963.27859	0.32596
1961.35002	0.32430
1959.42146	0.32261
1957.49290	0.32072
1955.56433	0.31883
1953.63577	0.31724
1951.70720	0.31588
1949.77864	0.31440
1947.85007	0.31269
1945.92151	0.31112
1943.99294	0.30998
1942.06438	0.30915
1940.13582	0.30831
1938.20725	0.30745
1936.27869	0.30667
1934.35012	0.30586
1932.42156	0.30510
1930.49299	0.30456
1928.56443	0.30411
1926.63586	0.30352
1924.70730	0.30296
1922.77874	0.30249
1920.85017	0.30181
1918.92161	0.30134
1916.99304	0.30129
1915.06448	0.30091
1913.13591	0.30039
1911.20735	0.30054
1909.27878	0.30113
1907.35022	0.30118
1905.42166	0.30080
1903.49309	0.30083
1901.56453	0.30127
1899.63596	0.30170
1897.70740	0.30218
1895.77883	0.30306
1893.85027	0.30403
1891.92171	0.30465
1889.99314	0.30570
1888.06458	0.30707
1886.13601	0.30778
1884.20745	0.30823
1882.27888	0.30890
1880.35032	0.30951
1878.42175	0.30958
1876.49319	0.30899
1874.56463	0.30801
1872.63606	0.30689
1870.70750	0.30587
1868.77893	0.30511
1866.85037	0.30394
1864.92180	0.30199
1862.99324	0.29988
1861.06467	0.29773
1859.13611	0.29536
1857.20755	0.29292
1855.27898	0.29066
1853.35042	0.28869
1851.42185	0.28712
1849.49329	0.28591
1847.56472	0.28463
1845.63616	0.28361
1843.70759	0.28347
1841.77903	0.28289
1839.85047	0.28138
1837.92190	0.28025
1835.99334	0.27999
1834.06477	0.27960
1832.13621	0.27902
1830.20764	0.27922
1828.27908	0.27964
1826.35051	0.27959
1824.42195	0.27975
1822.49339	0.27983
1820.56482	0.27970
1818.63626	0.27990
1816.70769	0.28033
1814.77913	0.28076
1812.85056	0.28146
1810.92200	0.28278
1808.99343	0.28424
1807.06487	0.28531
1805.13631	0.28628
1803.20774	0.28749
1801.27918	0.28946
1799.35061	0.29164
1797.42205	0.29285
1795.49348	0.29324
1793.56492	0.29413
1791.63635	0.29642
1789.70779	0.29774
1787.77923	0.29759
1785.85066	0.29742
1783.92210	0.29756
1781.99353	0.29779
1780.06497	0.29805
1778.13640	0.29786
1776.20784	0.29697
1774.27927	0.29607
1772.35071	0.29586
1770.42215	0.29574
1768.49358	0.29542
1766.56502	0.29508
1764.63645	0.29471
1762.70789	0.29541
1760.77932	0.29757
1758.85076	0.29978
1756.92220	0.30310
1754.99363	0.30713
1753.06507	0.31103
1751.13650	0.31767
1749.20794	0.32792
1747.27937	0.33702
1745.35081	0.34392
1743.42224	0.35006
1741.49368	0.35588
1739.56512	0.36097
1737.63655	0.36380
1735.70799	0.36577
1733.77942	0.37084
1731.85086	0.37525
1729.92229	0.37734
1727.99373	0.37968
1726.06516	0.38230
1724.13660	0.38611
1722.20804	0.39044
1720.27947	0.39453
1718.35091	0.40231
1716.42234	0.41774
1714.49378	0.43059
1712.56521	0.44017
1710.63665	0.45115
1708.70808	0.46453
1706.77952	0.48444
1704.85096	0.51110
1702.92239	0.53512
1700.99383	0.56954
1699.06526	0.62652
1697.13670	0.68165
1695.20813	0.73569
1693.27957	0.77612
1691.35100	0.80928
1689.42244	0.85050
1687.49388	0.88853
1685.56531	0.92701
1683.63675	0.99310
1681.70818	1.04417
1679.77962	1.07257
1677.85105	1.09893
1675.92249	1.13017
1673.99392	1.16332
1672.06536	1.18810
1670.13680	1.21359
1668.20823	1.24291
1666.27967	1.25984
1664.35110	1.27219
1662.42254	1.28867
1660.49397	1.30244
1658.56541	1.30938
1656.63684	1.31229
1654.70828	1.31482
1652.77972	1.31548
1650.85115	1.31243
1648.92259	1.30912
1646.99402	1.30516
1645.06546	1.30267
1643.13689	1.30005
1641.20833	1.29767
1639.27976	1.29511
1637.35120	1.29190
1635.42264	1.28692
1633.49407	1.28041
1631.56551	1.27430
1629.63694	1.26658
1627.70838	1.25675
1625.77981	1.24596
1623.85125	1.23162
1621.92269	1.21255
1619.99412	1.19484
1618.06556	1.17231
1616.13699	1.13881
1614.20843	1.11270
1612.27986	1.09216
1610.35130	1.06858
1608.42273	1.04321
1606.49417	1.02132
1604.56561	1.00478
1602.63704	0.99252
1600.70848	0.98399
1598.77991	0.97809
1596.85135	0.97409
1594.92278	0.97165
1592.99422	0.97048
1591.06565	0.97083
1589.13709	0.97259
1587.20853	0.97588
1585.27996	0.98208
1583.35140	0.99193
1581.42283	1.00284
1579.49427	1.01246
1577.56570	1.02482
1575.63714	1.04456
1573.70857	1.05961
1571.78001	1.07022
1569.85145	1.08638
1567.92288	1.10437
1565.99432	1.11795
1564.06575	1.13037
1562.13719	1.13889
1560.20862	1.14773
1558.28006	1.17422
1556.35149	1.19187
1554.42293	1.19718
1552.49437	1.19855
1550.56580	1.19665
1548.63724	1.19210
1546.70867	1.18715
1544.78011	1.18296
1542.85154	1.17922
1540.92298	1.17290
1538.99441	1.16371
1537.06585	1.15775
1535.13729	1.15106
1533.20872	1.14265
1531.28016	1.13592
1529.35159	1.13085
1527.42303	1.12456
1525.49446	1.11702
1523.56590	1.11188
1521.63733	1.11041
1519.70877	1.11035
1517.78021	1.10498
1515.85164	1.09443
1513.92308	1.08378
1511.99451	1.07160
1510.06595	1.05603
1508.13738	1.03080
1506.20882	0.99371
1504.28025	0.97325
1502.35169	0.95798
1500.42313	0.93950
1498.49456	0.91558
1496.56600	0.88720
1494.63743	0.86452
1492.70887	0.84860
1490.78030	0.83122
1488.85174	0.80958
1486.92317	0.79266
1484.99461	0.78100
1483.06605	0.77242
1481.13748	0.76706
1479.20892	0.76540
1477.28035	0.76756
1475.35179	0.77414
1473.42322	0.78904
1471.49466	0.80851
1469.56610	0.81972
1467.63753	0.82673
1465.70897	0.83548
1463.78040	0.84439
1461.85184	0.84889
1459.92327	0.85164
1457.99471	0.85950
1456.06614	0.87245
1454.13758	0.87698
1452.20902	0.87669
1450.28045	0.87512
1448.35189	0.87320
1446.42332	0.87088
1444.49476	0.86747
1442.56619	0.86265
1440.63763	0.85713
1438.70906	0.85128
1436.78050	0.84369
1434.85194	0.83428
1432.92337	0.82524
1430.99481	0.81635
1429.06624	0.80825
1427.13768	0.80267
1425.20911	0.79956
1423.28055	0.79843
1421.35198	0.79836
1419.42342	0.79963
1417.49486	0.80216
1415.56629	0.80333
1413.63773	0.80330
1411.70916	0.80279
1409.78060	0.80204
1407.85203	0.80152
1405.92347	0.80226
1403.99490	0.80429
1402.06634	0.80608
1400.13778	0.80771
1398.20921	0.80918
1396.28065	0.80999
1394.35208	0.81112
1392.42352	0.81294
1390.49495	0.81589
1388.56639	0.82275
1386.63782	0.83488
1384.70926	0.84716
1382.78070	0.85720
1380.85213	0.86539
1378.92357	0.86978
1376.99500	0.86873
1375.06644	0.86175
1373.13787	0.84936
1371.20931	0.83451
1369.28074	0.81736
1367.35218	0.79851
1365.42362	0.78113
1363.49505	0.76522
1361.56649	0.75193
1359.63792	0.74326
1357.70936	0.73748
1355.78079	0.73321
1353.85223	0.73049
1351.92366	0.72944
1349.99510	0.72951
1348.06654	0.72976
1346.13797	0.72986
1344.20941	0.73010
1342.28084	0.73059
1340.35228	0.73238
1338.42371	0.73647
1336.49515	0.74159
1334.56659	0.74764
1332.63802	0.75556
1330.70946	0.76434
1328.78089	0.77219
1326.85233	0.77852
1324.92376	0.78340
1322.99520	0.78736
1321.06663	0.79138
1319.13807	0.79568
1317.20951	0.79978
1315.28094	0.80356
1313.35238	0.80707
1311.42381	0.80964
1309.49525	0.81085
1307.56668	0.81103
1305.63812	0.81033
1303.70955	0.80916
1301.78099	0.80779
1299.85243	0.80522
1297.92386	0.80061
1295.99530	0.79490
1294.06673	0.78949
1292.13817	0.78533
1290.20960	0.78262
1288.28104	0.78048
1286.35247	0.77827
1284.42391	0.77639
1282.49535	0.77507
1280.56678	0.77413
1278.63822	0.77386
1276.70965	0.77470
1274.78109	0.77650
1272.85252	0.77954
1270.92396	0.78402
1268.99539	0.78870
1267.06683	0.79252
1265.13827	0.79555
1263.20970	0.79759
1261.28114	0.79789
1259.35257	0.79712
1257.42401	0.79661
1255.49544	0.79620
1253.56688	0.79526
1251.63831	0.79411
1249.70975	0.79325
1247.78119	0.79283
1245.85262	0.79281
1243.92406	0.79290
1241.99549	0.79241
1240.06693	0.79081
1238.13836	0.78857
1236.20980	0.78637
1234.28123	0.78401
1232.35267	0.78083
1230.42411	0.77693
1228.49554	0.77291
1226.56698	0.76852
1224.63841	0.76315
1222.70985	0.75727
1220.78128	0.75175
1218.85272	0.74679
1216.92415	0.74245
1214.99559	0.73897
1213.06703	0.73719
1211.13846	0.73776
1209.20990	0.73945
1207.28133	0.74016
1205.35277	0.73796
1203.42420	0.73212
1201.49564	0.72399
1199.56708	0.71475
1197.63851	0.70503
1195.70995	0.69599
1193.78138	0.68812
1191.85282	0.68161
1189.92425	0.67698
1187.99569	0.67451
1186.06712	0.67385
1184.13856	0.67457
1182.21000	0.67695
1180.28143	0.68149
1178.35287	0.68842
1176.42430	0.69764
1174.49574	0.70875
1172.56717	0.72103
1170.63861	0.73372
1168.71004	0.74709
1166.78148	0.76232
1164.85292	0.77896
1162.92435	0.79444
1160.99579	0.80584
1159.06722	0.81082
1157.13866	0.80826
1155.21009	0.79939
1153.28153	0.78686
1151.35296	0.77193
1149.42440	0.75501
1147.49584	0.73794
1145.56727	0.72332
1143.63871	0.71308
1141.71014	0.70756
1139.78158	0.70604
1137.85301	0.70821
1135.92445	0.71351
1133.99588	0.72113
1132.06732	0.73125
1130.13876	0.74441
1128.21019	0.75977
1126.28163	0.77543
1124.35306	0.79037
1122.42450	0.80437
1120.49593	0.81658
1118.56737	0.82563
1116.63880	0.83063
1114.71024	0.83112
1112.78168	0.82734
1110.85311	0.82093
1108.92455	0.81432
1106.99598	0.80928
1105.06742	0.80519
1103.13885	0.80047
1101.21029	0.79594
1099.28172	0.79429
1097.35316	0.79734
1095.42460	0.80513
1093.49603	0.81625
1091.56747	0.82871
1089.63890	0.84250
1087.71034	0.85988
1085.78177	0.88120
1083.85321	0.90312
1081.92464	0.92213
1079.99608	0.93631
1078.06752	0.94429
1076.13895	0.94513
1074.21039	0.93950
1072.28182	0.93012
1070.35326	0.91989
1068.42469	0.90950
1066.49613	0.89910
1064.56756	0.88993
1062.63900	0.88177
1060.71044	0.87276
1058.78187	0.86222
1056.85331	0.85126
1054.92474	0.84193
1052.99618	0.83566
1051.06761	0.83221
1049.13905	0.83063
1047.21049	0.83110
1045.28192	0.83496
1043.35336	0.84155
1041.42479	0.84848
1039.49623	0.85557
1037.56766	0.86324
1035.63910	0.86976
1033.71053	0.87349
1031.78197	0.87404
1029.85341	0.87159
1027.92484	0.86618
1025.99628	0.85786
1024.06771	0.84815
1022.13915	0.83890
1020.21058	0.82977
1018.28202	0.81988
1016.35345	0.80911
1014.42489	0.79652
1012.49633	0.78107
1010.56776	0.76282
1008.63920	0.74238
1006.71063	0.72109
1004.78207	0.70026
1002.85350	0.68087
1000.92494	0.66388
998.99637	0.64950
997.06781	0.63760
995.13925	0.62816
993.21068	0.62043
991.28212	0.61329
989.35355	0.60652
987.42499	0.60028
985.49642	0.59439
983.56786	0.58916
981.63929	0.58574
979.71073	0.58445
977.78217	0.58435
975.85360	0.58433
973.92504	0.58283
971.99647	0.57838
970.06791	0.57186
968.13934	0.56525
966.21078	0.55933
964.28221	0.55437
962.35365	0.55139
960.42509	0.55198
958.49652	0.55624
956.56796	0.56085
954.63939	0.56168
952.71083	0.55741
950.78226	0.54932
948.85370	0.53973
946.92513	0.53099
944.99657	0.52445
943.06801	0.52035
941.13944	0.51856
939.21088	0.51878
937.28231	0.52064
935.35375	0.52343
933.42518	0.52651
931.49662	0.53027
929.56805	0.53516
927.63949	0.54071
925.71093	0.54648
923.78236	0.55210
921.85380	0.55680
919.92523	0.56024
917.99667	0.56256
916.06810	0.56380
914.13954	0.56426
912.21098	0.56464
910.28241	0.56527
908.35385	0.56645
906.42528	0.56873
904.49672	0.57185
902.56815	0.57496
900.63959	0.57779
898.71102	0.58025
896.78246	0.58194
894.85390	0.58269
892.92533	0.58268
890.99677	0.58216
889.06820	0.58140
887.13964	0.58132
885.21107	0.58249
883.28251	0.58408
881.35394	0.58529
879.42538	0.58613
877.49682	0.58636
875.56825	0.58605
873.63969	0.58566
871.71112	0.58475
869.78256	0.58252
867.85399	0.57878
865.92543	0.57421
863.99686	0.56969
862.06830	0.56527
860.13974	0.56079
858.21117	0.55614
856.28261	0.55131
854.35404	0.54722
852.42548	0.54433
850.49691	0.54155
848.56835	0.53826
846.63978	0.53541
844.71122	0.53376
842.78266	0.53309
840.85409	0.53322
838.92553	0.53441
836.99696	0.53673
835.06840	0.53983
833.13983	0.54293
831.21127	0.54547
829.28270	0.54797
827.35414	0.55134
825.42558	0.55545
823.49701	0.55945
821.56845	0.56281
819.63988	0.56578
817.71132	0.56897
815.78275	0.57264
813.85419	0.57648
811.92562	0.57993
809.99706	0.58291
808.06850	0.58605
806.13993	0.58982
804.21137	0.59462
802.28280	0.60078
800.35424	0.60757
798.42567	0.61389
796.49711	0.61964
794.56854	0.62563
792.63998	0.63221
790.71142	0.63918
788.78285	0.64681
786.85429	0.65481
784.92572	0.66245
782.99716	0.66954
781.06859	0.67508
779.14003	0.67886
777.21147	0.68272
775.28290	0.68638
773.35434	0.68731
771.42577	0.68578
769.49721	0.68421
767.56864	0.68276
765.64008	0.68004
763.71151	0.67599
761.78295	0.67148
759.85439	0.66740
757.92582	0.66393
755.99726	0.66053
754.06869	0.65724
752.14013	0.65454
750.21156	0.65258
748.28300	0.65114
746.35443	0.64963
744.42587	0.64820
742.49731	0.64795
740.56874	0.64853
738.64018	0.64845
736.71161	0.64829
734.78305	0.64975
732.85448	0.65286
730.92592	0.65679
728.99735	0.66090
727.06879	0.66473
725.14023	0.66841
723.21166	0.67278
721.28310	0.67850
719.35453	0.68383
717.42597	0.68706
715.49740	0.68958
713.56884	0.69265
711.64027	0.69658
709.71171	0.70123
707.78315	0.70529
705.85458	0.70830
703.92602	0.71141
701.99745	0.71512
700.06889	0.71756
698.14032	0.71734
696.21176	0.71599
694.28319	0.71510
692.35463	0.71533
690.42607	0.71619
688.49750	0.71494
686.56894	0.71085
684.64037	0.70660
682.71181	0.70375
680.78324	0.70219
678.85468	0.70111
676.92611	0.69960
674.99755	0.69824
673.06899	0.69801
671.14042	0.69914
669.21186	0.70229
667.28329	0.70508
665.35473	0.70425
663.42616	0.70217
661.49760	0.70080
659.56903	0.70152
657.64047	0.70358
655.71191	0.70605
653.78334	0.70898
651.85478	0.71164
649.92621	0.71330
647.99765	0.71517
646.06908	0.71870
644.14052	0.72317
642.21195	0.72813
640.28339	0.73314
638.35483	0.73631
636.42626	0.73836
634.49770	0.74000
632.56913	0.73916
630.64057	0.73654
628.71200	0.73433
626.78344	0.73335
624.85488	0.73494
622.92631	0.73852
620.99775	0.74149
619.06918	0.74229
617.14062	0.74028
615.21205	0.73705
613.28349	0.73555
611.35492	0.73582
609.42636	0.73623
607.49780	0.73679
605.56923	0.73701
603.64067	0.73590
601.71210	0.73620
599.78354	0.73855
