3997.91406	0.48629
3995.98550	0.48493
3994.05693	0.48456
3992.12837	0.48562
3990.19980	0.48607
3988.27124	0.48551
3986.34268	0.48490
3984.41411	0.48374
3982.48555	0.48225
3980.55698	0.48245
3978.62842	0.48384
3976.69985	0.48343
3974.77129	0.48097
3972.84272	0.47914
3970.91416	0.47848
3968.98560	0.47799
3967.05703	0.47821
3965.12847	0.47888
3963.19990	0.47832
3961.27134	0.47660
3959.34277	0.47544
3957.41421	0.47520
3955.48564	0.47558
3953.55708	0.47616
3951.62852	0.47551
3949.69995	0.47308
3947.77139	0.47102
3945.84282	0.47060
3943.91426	0.46964
3941.98569	0.46744
3940.05713	0.46722
3938.12856	0.46966
3936.20000	0.47252
3934.27144	0.47434
3932.34287	0.47398
3930.41431	0.47122
3928.48574	0.46858
3926.55718	0.46704
3924.62861	0.46629
3922.70005	0.46755
3920.77148	0.46972
3918.84292	0.46955
3916.91436	0.46731
3914.98579	0.46560
3913.05723	0.46442
3911.12866	0.46361
3909.20010	0.46345
3907.27153	0.46300
3905.34297	0.46140
3903.41440	0.46038
3901.48584	0.46149
3899.55728	0.46228
3897.62871	0.46203
3895.70015	0.46238
3893.77158	0.46298
3891.84302	0.46200
3889.91445	0.46125
3887.98589	0.46283
3886.05733	0.46395
3884.12876	0.46243
3882.20020	0.45932
3880.27163	0.45568
3878.34307	0.45560
3876.41450	0.45774
3874.48594	0.45800
3872.55737	0.45675
3870.62881	0.45509
3868.70025	0.45392
3866.77168	0.45429
3864.84312	0.45279
3862.91455	0.44992
3860.98599	0.45003
3859.05742	0.45244
3857.12886	0.45705
3855.20029	0.46272
3853.27173	0.45871
3851.34317	0.45060
3849.41460	0.44945
3847.48604	0.45068
3845.55747	0.45186
3843.62891	0.45218
3841.70034	0.45166
3839.77178	0.45021
3837.84321	0.44804
3835.91465	0.44700
3833.98609	0.44704
3832.05752	0.44669
3830.12896	0.44566
3828.20039	0.44499
3826.27183	0.44514
3824.34326	0.44639
3822.41470	0.44726
3820.48613	0.44515
3818.55757	0.44334
3816.62901	0.44177
3814.70044	0.44050
3812.77188	0.44181
3810.84331	0.44416
3808.91475	0.44561
3806.98618	0.44528
3805.05762	0.44573
3803.12905	0.44697
3801.20049	0.44485
3799.27193	0.44180
3797.34336	0.43971
3795.41480	0.43858
3793.48623	0.43974
3791.55767	0.44098
3789.62910	0.44061
3787.70054	0.43944
3785.77197	0.43820
3783.84341	0.43771
3781.91485	0.43846
3779.98628	0.43852
3778.05772	0.43680
3776.12915	0.43588
3774.20059	0.43690
3772.27202	0.43826
3770.34346	0.43757
3768.41489	0.43586
3766.48633	0.43482
3764.55777	0.43421
3762.62920	0.43536
3760.70064	0.43693
3758.77207	0.43583
3756.84351	0.43482
3754.91494	0.43698
3752.98638	0.44038
3751.05781	0.44022
3749.12925	0.43757
3747.20069	0.43662
3745.27212	0.43292
3743.34356	0.42863
3741.41499	0.42997
3739.48643	0.43316
3737.55786	0.43351
3735.62930	0.42886
3733.70074	0.42368
3731.77217	0.42222
3729.84361	0.42402
3727.91504	0.42764
3725.98648	0.43019
3724.05791	0.42928
3722.12935	0.42666
3720.20078	0.42542
3718.27222	0.42621
3716.34366	0.42803
3714.41509	0.43013
3712.48653	0.42985
3710.55796	0.42587
3708.62940	0.42481
3706.70083	0.42683
3704.77227	0.42918
3702.84370	0.42960
3700.91514	0.42784
3698.98658	0.42728
3697.05801	0.42801
3695.12945	0.42839
3693.20088	0.42919
3691.27232	0.43101
3689.34375	0.43083
3687.41519	0.42867
3685.48662	0.42802
3683.55806	0.42903
3681.62950	0.43103
3679.70093	0.43303
3677.77237	0.43373
3675.84380	0.43205
3673.91524	0.43350
3671.98667	0.43872
3670.05811	0.44212
3668.12954	0.44206
3666.20098	0.44235
3664.27242	0.44406
3662.34385	0.44750
3660.41529	0.45188
3658.48672	0.45539
3656.55816	0.45719
3654.62959	0.45852
3652.70103	0.46008
3650.77246	0.45977
3648.84390	0.45882
3646.91534	0.46335
3644.98677	0.46817
3643.05821	0.47147
3641.12964	0.47464
3639.20108	0.47815
3637.27251	0.48158
3635.34395	0.48491
3633.41538	0.48834
3631.48682	0.49204
3629.55826	0.49533
3627.62969	0.49781
3625.70113	0.50172
3623.77256	0.50689
3621.84400	0.51206
3619.91543	0.51585
3617.98687	0.51834
3616.05830	0.52143
3614.12974	0.52455
3612.20118	0.52744
3610.27261	0.53143
3608.34405	0.53712
3606.41548	0.54343
3604.48692	0.54849
3602.55835	0.55219
3600.62979	0.55507
3598.70123	0.55753
3596.77266	0.56042
3594.84410	0.56480
3592.91553	0.56970
3590.98697	0.57432
3589.05840	0.57972
3587.12984	0.58429
3585.20127	0.58646
3583.27271	0.58937
3581.34415	0.59484
3579.41558	0.60179
3577.48702	0.60636
3575.55845	0.60845
3573.62989	0.61264
3571.70132	0.61920
3569.77276	0.62452
3567.84419	0.62805
3565.91563	0.63196
3563.98707	0.63647
3562.05850	0.64097
3560.12994	0.64554
3558.20137	0.65074
3556.27281	0.65571
3554.34424	0.65992
3552.41568	0.66468
3550.48711	0.66958
3548.55855	0.67413
3546.62999	0.67857
3544.70142	0.68257
3542.77286	0.68761
3540.84429	0.69382
3538.91573	0.69893
3536.98716	0.70205
3535.05860	0.70404
3533.13003	0.70691
3531.20147	0.71233
3529.27291	0.71944
3527.34434	0.72730
3525.41578	0.73521
3523.48721	0.74004
3521.55865	0.74167
3519.63008	0.74473
3517.70152	0.75114
3515.77295	0.75902
3513.84439	0.76639
3511.91583	0.77174
3509.98726	0.77604
3508.05870	0.78169
3506.13013	0.78767
3504.20157	0.79370
3502.27300	0.80118
3500.34444	0.80998
3498.41587	0.81878
3496.48731	0.82542
3494.55875	0.83009
3492.63018	0.83460
3490.70162	0.83856
3488.77305	0.84176
3486.84449	0.84594
3484.91592	0.85265
3482.98736	0.86099
3481.05879	0.86694
3479.13023	0.86846
3477.20167	0.86912
3475.27310	0.87213
3473.34454	0.87749
3471.41597	0.88328
3469.48741	0.88766
3467.55884	0.88982
3465.63028	0.89082
3463.70171	0.89249
3461.77315	0.89431
3459.84459	0.89484
3457.91602	0.89605
3455.98746	0.89988
3454.05889	0.90423
3452.13033	0.90861
3450.20176	0.91370
3448.27320	0.91744
3446.34464	0.91907
3444.41607	0.91900
3442.48751	0.91926
3440.55894	0.92398
3438.63038	0.93173
3436.70181	0.93613
3434.77325	0.93552
3432.84468	0.93481
3430.91612	0.93605
3428.98756	0.93592
3427.05899	0.93337
3425.13043	0.93024
3423.20186	0.92868
3421.27330	0.93072
3419.34473	0.93376
3417.41617	0.93424
3415.48760	0.93492
3413.55904	0.93762
3411.63048	0.93970
3409.70191	0.94064
3407.77335	0.94338
3405.84478	0.94846
3403.91622	0.95157
3401.98765	0.95095
3400.05909	0.95054
3398.13052	0.95203
3396.20196	0.95284
3394.27340	0.95172
3392.34483	0.95029
3390.41627	0.95124
3388.48770	0.95603
3386.55914	0.96107
3384.63057	0.96124
3382.70201	0.95910
3380.77344	0.96016
3378.84488	0.96249
3376.91632	0.96167
3374.98775	0.96045
3373.05919	0.96277
3371.13062	0.96623
3369.20206	0.96665
3367.27349	0.96436
3365.34493	0.96438
3363.41636	0.96903
3361.48780	0.97475
3359.55924	0.97740
3357.63067	0.97682
3355.70211	0.97677
3353.77354	0.97934
3351.84498	0.98249
3349.91641	0.98362
3347.98785	0.98395
3346.05928	0.98702
3344.13072	0.99105
3342.20216	0.99248
3340.27359	0.99376
3338.34503	0.99632
3336.41646	0.99864
3334.48790	1.00235
3332.55933	1.00840
3330.63077	1.01383
3328.70220	1.01676
3326.77364	1.01881
3324.84508	1.02179
3322.91651	1.02489
3320.98795	1.02704
3319.05938	1.02983
3317.13082	1.03424
3315.20225	1.03787
3313.27369	1.03993
3311.34513	1.04369
3309.41656	1.04950
3307.48800	1.05260
3305.55943	1.05163
3303.63087	1.05173
3301.70230	1.05507
3299.77374	1.05728
3297.84517	1.05745
3295.91661	1.06047
3293.98805	1.06669
3292.05948	1.07027
3290.13092	1.06883
3288.20235	1.06496
3286.27379	1.06098
3284.34522	1.06066
3282.41666	1.06445
3280.48809	1.06583
3278.55953	1.06359
3276.63097	1.06302
3274.70240	1.06442
3272.77384	1.06409
3270.84527	1.06108
3268.91671	1.05685
3266.98814	1.05202
3265.05958	1.04685
3263.13101	1.04328
3261.20245	1.04042
3259.27389	1.03372
3257.34532	1.02385
3255.41676	1.01557
3253.48819	1.00934
3251.55963	1.00343
3249.63106	0.99918
3247.70250	0.99654
3245.77393	0.99209
3243.84537	0.98691
3241.91681	0.98270
3239.98824	0.97629
3238.05968	0.96920
3236.13111	0.96545
3234.20255	0.96282
3232.27398	0.95843
3230.34542	0.95303
3228.41685	0.94813
3226.48829	0.94436
3224.55973	0.94011
3222.63116	0.93373
3220.70260	0.92729
3218.77403	0.92291
3216.84547	0.91973
3214.91690	0.91749
3212.98834	0.91647
3211.05977	0.91479
3209.13121	0.91133
3207.20265	0.90713
3205.27408	0.90199
3203.34552	0.89604
3201.41695	0.89091
3199.48839	0.88639
3197.55982	0.88196
3195.63126	0.87865
3193.70269	0.87604
3191.77413	0.87260
3189.84557	0.86834
3187.91700	0.86377
3185.98844	0.85935
3184.05987	0.85562
3182.13131	0.85144
3180.20274	0.84553
3178.27418	0.83944
3176.34562	0.83527
3174.41705	0.83243
3172.48849	0.82983
3170.55992	0.82785
3168.63136	0.82630
3166.70279	0.82369
3164.77423	0.81922
3162.84566	0.81378
3160.91710	0.80856
3158.98854	0.80422
3157.05997	0.80121
3155.13141	0.79931
3153.20284	0.79779
3151.27428	0.79494
3149.34571	0.79029
3147.41715	0.78702
3145.48858	0.78587
3143.56002	0.78429
3141.63146	0.78207
3139.70289	0.77989
3137.77433	0.77841
3135.84576	0.77863
3133.91720	0.77882
3131.98863	0.77733
3130.06007	0.77648
3128.13150	0.77780
3126.20294	0.77925
3124.27438	0.77848
3122.34581	0.77622
3120.41725	0.77493
3118.48868	0.77488
3116.56012	0.77531
3114.63155	0.77588
3112.70299	0.77564
3110.77442	0.77493
3108.84586	0.77470
3106.91730	0.77429
3104.98873	0.77355
3103.06017	0.77287
3101.13160	0.77145
3099.20304	0.76950
3097.27447	0.76806
3095.34591	0.76715
3093.41734	0.76656
3091.48878	0.76568
3089.56022	0.76414
3087.63165	0.76212
3085.70309	0.75960
3083.77452	0.75763
3081.84596	0.75641
3079.91739	0.75426
3077.98883	0.75125
3076.06026	0.74924
3074.13170	0.74777
3072.20314	0.74481
3070.27457	0.74103
3068.34601	0.73853
3066.41744	0.73718
3064.48888	0.73487
3062.56031	0.73078
3060.63175	0.72673
3058.70318	0.72375
3056.77462	0.72084
3054.84606	0.71736
3052.91749	0.71339
3050.98893	0.70953
3049.06036	0.70657
3047.13180	0.70407
3045.20323	0.70088
3043.27467	0.69712
3041.34610	0.69373
3039.41754	0.69076
3037.48898	0.68747
3035.56041	0.68392
3033.63185	0.68130
3031.70328	0.67970
3029.77472	0.67797
3027.84615	0.67559
3025.91759	0.67304
3023.98903	0.67073
3022.06046	0.66874
3020.13190	0.66683
3018.20333	0.66418
3016.27477	0.66148
3014.34620	0.66028
3012.41764	0.65896
3010.48907	0.65602
3008.56051	0.65323
3006.63195	0.65119
3004.70338	0.64931
3002.77482	0.64838
3000.84625	0.64842
2998.91769	0.64847
2996.98912	0.64847
2995.06056	0.64901
2993.13199	0.65001
2991.20343	0.65106
2989.27487	0.65341
2987.34630	0.65793
2985.41774	0.66349
2983.48917	0.66916
2981.56061	0.67487
2979.63204	0.68072
2977.70348	0.68711
2975.77491	0.69401
2973.84635	0.70028
2971.91779	0.70556
2969.98922	0.71115
2968.06066	0.71740
2966.13209	0.72350
2964.20353	0.72887
2962.27496	0.73244
2960.34640	0.73305
2958.41783	0.73113
2956.48927	0.72757
2954.56071	0.72234
2952.63214	0.71622
2950.70358	0.71114
2948.77501	0.70793
2946.84645	0.70736
2944.91788	0.71052
2942.98932	0.71635
2941.06075	0.72339
2939.13219	0.73135
2937.20363	0.73955
2935.27506	0.74814
2933.34650	0.75700
2931.41793	0.76495
2929.48937	0.77212
2927.56080	0.77860
2925.63224	0.78391
2923.70367	0.78774
2921.77511	0.78942
2919.84655	0.78824
2917.91798	0.78254
2915.98942	0.77016
2914.06085	0.75208
2912.13229	0.73359
2910.20372	0.71934
2908.27516	0.70922
2906.34659	0.70080
2904.41803	0.69293
2902.48947	0.68607
2900.56090	0.68131
2898.63234	0.67871
2896.70377	0.67698
2894.77521	0.67512
2892.84664	0.67255
2890.91808	0.66883
2888.98952	0.66464
2887.06095	0.66149
2885.13239	0.66023
2883.20382	0.66010
2881.27526	0.66002
2879.34669	0.66022
2877.41813	0.66092
2875.48956	0.66064
2873.56100	0.65834
2871.63244	0.65452
2869.70387	0.64915
2867.77531	0.64254
2865.84674	0.63654
2863.91818	0.63286
2861.98961	0.63232
2860.06105	0.63460
2858.13248	0.63846
2856.20392	0.64340
2854.27536	0.64926
2852.34679	0.65383
2850.41823	0.65253
2848.48966	0.64137
2846.56110	0.62249
2844.63253	0.60334
2842.70397	0.58846
2840.77540	0.57773
2838.84684	0.56988
2836.91828	0.56386
2834.98971	0.55929
2833.06115	0.55563
2831.13258	0.55172
2829.20402	0.54734
2827.27545	0.54337
2825.34689	0.54000
2823.41832	0.53709
2821.48976	0.53485
2819.56120	0.53271
2817.63263	0.52990
2815.70407	0.52678
2813.77550	0.52401
2811.84694	0.52162
2809.91837	0.51929
2807.98981	0.51677
2806.06124	0.51401
2804.13268	0.51145
2802.20412	0.50942
2800.27555	0.50774
2798.34699	0.50647
2796.41842	0.50558
2794.48986	0.50406
2792.56129	0.50141
2790.63273	0.49874
2788.70416	0.49677
2786.77560	0.49482
2784.84704	0.49271
2782.91847	0.49098
2780.98991	0.48962
2779.06134	0.48814
2777.13278	0.48652
2775.20421	0.48483
2773.27565	0.48292
2771.34708	0.48098
2769.41852	0.47940
2767.48996	0.47823
2765.56139	0.47704
2763.63283	0.47550
2761.70426	0.47419
2759.77570	0.47357
2757.84713	0.47299
2755.91857	0.47184
2753.99001	0.47041
2752.06144	0.46915
2750.13288	0.46813
2748.20431	0.46678
2746.27575	0.46492
2744.34718	0.46327
2742.41862	0.46223
2740.49005	0.46156
2738.56149	0.46063
2736.63293	0.45915
2734.70436	0.45789
2732.77580	0.45679
2730.84723	0.45521
2728.91867	0.45365
2726.99010	0.45237
2725.06154	0.45115
2723.13297	0.45002
2721.20441	0.44866
2719.27585	0.44723
2717.34728	0.44620
2715.41872	0.44556
2713.49015	0.44474
2711.56159	0.44346
2709.63302	0.44239
2707.70446	0.44171
2705.77589	0.44078
2703.84733	0.43956
2701.91877	0.43828
2699.99020	0.43701
2698.06164	0.43582
2696.13307	0.43457
2694.20451	0.43334
2692.27594	0.43262
2690.34738	0.43219
2688.41881	0.43136
2686.49025	0.43047
2684.56169	0.42997
2682.63312	0.42930
2680.70456	0.42848
2678.77599	0.42797
2676.84743	0.42736
2674.91886	0.42646
2672.99030	0.42577
2671.06173	0.42508
2669.13317	0.42393
2667.20461	0.42257
2665.27604	0.42133
2663.34748	0.42007
2661.41891	0.41884
2659.49035	0.41816
2657.56178	0.41778
2655.63322	0.41686
2653.70465	0.41556
2651.77609	0.41442
2649.84753	0.41344
2647.91896	0.41266
2645.99040	0.41215
2644.06183	0.41181
2642.13327	0.41129
2640.20470	0.41025
2638.27614	0.40907
2636.34757	0.40840
2634.41901	0.40822
2632.49045	0.40810
2630.56188	0.40784
2628.63332	0.40742
2626.70475	0.40707
2624.77619	0.40694
2622.84762	0.40660
2620.91906	0.40584
2618.99049	0.40482
2617.06193	0.40371
2615.13337	0.40263
2613.20480	0.40185
2611.27624	0.40127
2609.34767	0.40004
2607.41911	0.39816
2605.49054	0.39671
2603.56198	0.39606
2601.63342	0.39578
2599.70485	0.39548
2597.77629	0.39491
2595.84772	0.39423
2593.91916	0.39367
2591.99059	0.39316
2590.06203	0.39261
2588.13346	0.39193
2586.20490	0.39105
2584.27634	0.39021
2582.34777	0.38956
2580.41921	0.38878
2578.49064	0.38786
2576.56208	0.38726
2574.63351	0.38685
2572.70495	0.38600
2570.77638	0.38476
2568.84782	0.38364
2566.91926	0.38272
2564.99069	0.38205
2563.06213	0.38166
2561.13356	0.38090
2559.20500	0.37967
2557.27643	0.37871
2555.34787	0.37821
2553.41930	0.37774
2551.49074	0.37724
2549.56218	0.37689
2547.63361	0.37649
2545.70505	0.37571
2543.77648	0.37469
2541.84792	0.37372
2539.91935	0.37252
2537.99079	0.37112
2536.06222	0.37010
2534.13366	0.36955
2532.20510	0.36915
2530.27653	0.36869
2528.34797	0.36790
2526.41940	0.36669
2524.49084	0.36531
2522.56227	0.36422
2520.63371	0.36365
2518.70514	0.36333
2516.77658	0.36290
2514.84802	0.36229
2512.91945	0.36176
2510.99089	0.36158
2509.06232	0.36164
2507.13376	0.36177
2505.20519	0.36168
2503.27663	0.36126
2501.34806	0.36076
2499.41950	0.36000
2497.49094	0.35887
2495.56237	0.35772
2493.63381	0.35659
2491.70524	0.35537
2489.77668	0.35424
2487.84811	0.35317
2485.91955	0.35185
2483.99098	0.35025
2482.06242	0.34875
2480.13386	0.34767
2478.20529	0.34675
2476.27673	0.34566
2474.34816	0.34474
2472.41960	0.34417
2470.49103	0.34347
2468.56247	0.34258
2466.63391	0.34200
2464.70534	0.34162
2462.77678	0.34106
2460.84821	0.34049
2458.91965	0.34023
2456.99108	0.34003
2455.06252	0.33940
2453.13395	0.33809
2451.20539	0.33653
2449.27683	0.33550
2447.34826	0.33487
2445.41970	0.33379
2443.49113	0.33237
2441.56257	0.33117
2439.63400	0.32999
2437.70544	0.32875
2435.77687	0.32786
2433.84831	0.32723
2431.91975	0.32663
2429.99118	0.32626
2428.06262	0.32610
2426.13405	0.32576
2424.20549	0.32515
2422.27692	0.32448
2420.34836	0.32395
2418.41979	0.32381
2416.49123	0.32392
2414.56267	0.32372
2412.63410	0.32278
2410.70554	0.32140
2408.77697	0.31998
2406.84841	0.31848
2404.91984	0.31711
2402.99128	0.31608
2401.06271	0.31500
2399.13415	0.31369
2397.20559	0.31239
2395.27702	0.31115
2393.34846	0.30999
2391.41989	0.30891
2389.49133	0.30789
2387.56276	0.30710
2385.63420	0.30657
2383.70563	0.30589
2381.77707	0.30476
2379.84851	0.30338
2377.91994	0.30198
2375.99138	0.30031
2374.06281	0.29793
2372.13425	0.29521
2370.20568	0.29303
2368.27712	0.29100
2366.34855	0.28828
2364.41999	0.28618
2362.49143	0.28548
2360.56286	0.28630
2358.63430	0.28798
2356.70573	0.28767
2354.77717	0.28589
2352.84860	0.28507
2350.92004	0.28524
2348.99147	0.28544
2347.06291	0.28489
2345.13435	0.28354
2343.20578	0.28231
2341.27722	0.28103
2339.34865	0.28015
2337.42009	0.28115
2335.49152	0.28302
2333.56296	0.28363
2331.63440	0.28253
2329.70583	0.28088
2327.77727	0.27975
2325.84870	0.27942
2323.92014	0.27986
2321.99157	0.28030
2320.06301	0.27977
2318.13444	0.27867
2316.20588	0.27802
2314.27732	0.27789
2312.34875	0.27792
2310.42019	0.27794
2308.49162	0.27786
2306.56306	0.27778
2304.63449	0.27761
2302.70593	0.27727
2300.77736	0.27686
2298.84880	0.27645
2296.92024	0.27603
2294.99167	0.27555
2293.06311	0.27508
2291.13454	0.27471
2289.20598	0.27439
2287.27741	0.27395
2285.34885	0.27337
2283.42028	0.27262
2281.49172	0.27159
2279.56316	0.27042
2277.63459	0.26931
2275.70603	0.26834
2273.77746	0.26752
2271.84890	0.26685
2269.92033	0.26642
2267.99177	0.26623
2266.06320	0.26596
2264.13464	0.26549
2262.20608	0.26494
2260.27751	0.26428
2258.34895	0.26345
2256.42038	0.26284
2254.49182	0.26258
2252.56325	0.26223
2250.63469	0.26155
2248.70612	0.26059
2246.77756	0.25940
2244.84900	0.25826
2242.92043	0.25749
2240.99187	0.25704
2239.06330	0.25651
2237.13474	0.25570
2235.20617	0.25473
2233.27761	0.25378
2231.34904	0.25291
2229.42048	0.25214
2227.49192	0.25154
2225.56335	0.25111
2223.63479	0.25087
2221.70622	0.25074
2219.77766	0.25058
2217.84909	0.25032
2215.92053	0.24998
2213.99196	0.24969
2212.06340	0.24941
2210.13484	0.24905
2208.20627	0.24860
2206.27771	0.24802
2204.34914	0.24748
2202.42058	0.24684
2200.49201	0.24577
2198.56345	0.24456
2196.63488	0.24363
2194.70632	0.24281
2192.77776	0.24190
2190.84919	0.24104
2188.92063	0.24023
2186.99206	0.23921
2185.06350	0.23806
2183.13493	0.23712
2181.20637	0.23643
2179.27781	0.23580
2177.34924	0.23511
2175.42068	0.23441
2173.49211	0.23375
2171.56355	0.23308
2169.63498	0.23233
2167.70642	0.23165
2165.77785	0.23123
2163.84929	0.23078
2161.92073	0.23003
2159.99216	0.22917
2158.06360	0.22846
2156.13503	0.22773
2154.20647	0.22686
2152.27790	0.22598
2150.34934	0.22514
2148.42077	0.22440
2146.49221	0.22370
2144.56365	0.22281
2142.63508	0.22187
2140.70652	0.22117
2138.77795	0.22069
2136.84939	0.22025
2134.92082	0.21987
2132.99226	0.21951
2131.06369	0.21895
2129.13513	0.21815
2127.20657	0.21752
2125.27800	0.21729
2123.34944	0.21714
2121.42087	0.21671
2119.49231	0.21610
2117.56374	0.21555
2115.63518	0.21507
2113.70661	0.21442
2111.77805	0.21350
2109.84949	0.21249
2107.92092	0.21165
2105.99236	0.21100
2104.06379	0.21019
2102.13523	0.20918
2100.20666	0.20834
2098.27810	0.20773
2096.34953	0.20703
2094.42097	0.20624
2092.49241	0.20552
2090.56384	0.20480
2088.63528	0.20400
2086.70671	0.20321
2084.77815	0.20249
2082.84958	0.20181
2080.92102	0.20106
2078.99245	0.20017
2077.06389	0.19933
2075.13533	0.19872
2073.20676	0.19825
2071.27820	0.19771
2069.34963	0.19693
2067.42107	0.19611
2065.49250	0.19540
2063.56394	0.19460
2061.63537	0.19355
2059.70681	0.19251
2057.77825	0.19171
2055.84968	0.19096
2053.92112	0.19017
2051.99255	0.18946
2050.06399	0.18873
2048.13542	0.18778
2046.20686	0.18670
2044.27830	0.18583
2042.34973	0.18523
2040.42117	0.18461
2038.49260	0.18388
2036.56404	0.18306
2034.63547	0.18209
2032.70691	0.18106
2030.77834	0.18016
2028.84978	0.17947
2026.92122	0.17893
2024.99265	0.17826
2023.06409	0.17744
2021.13552	0.17664
2019.20696	0.17575
2017.27839	0.17471
2015.34983	0.17373
2013.42126	0.17291
2011.49270	0.17217
2009.56414	0.17145
2007.63557	0.17061
2005.70701	0.16963
2003.77844	0.16876
2001.84988	0.16808
1999.92131	0.16735
1997.99275	0.16657
1996.06418	0.16593
1994.13562	0.16544
1992.20706	0.16502
1990.27849	0.16466
1988.34993	0.16436
1986.42136	0.16414
1984.49280	0.16396
1982.56423	0.16367
1980.63567	0.16319
1978.70710	0.16254
1976.77854	0.16195
1974.84998	0.16146
1972.92141	0.16094
1970.99285	0.16042
1969.06428	0.15986
1967.13572	0.15904
1965.20715	0.15800
1963.27859	0.15708
1961.35002	0.15636
1959.42146	0.15568
1957.49290	0.15497
1955.56433	0.15416
1953.63577	0.15321
1951.70720	0.15224
1949.77864	0.15137
1947.85007	0.15052
1945.92151	0.14961
1943.99294	0.14870
1942.06438	0.14780
1940.13582	0.14703
1938.20725	0.14647
1936.27869	0.14596
1934.35012	0.14530
1932.42156	0.14456
1930.49299	0.14403
1928.56443	0.14366
1926.63586	0.14324
1924.70730	0.14276
1922.77874	0.14220
1920.85017	0.14169
1918.92161	0.14133
1916.99304	0.14099
1915.06448	0.14053
1913.13591	0.14005
1911.20735	0.13967
1909.27878	0.13922
1907.35022	0.13844
1905.42166	0.13755
1903.49309	0.13690
1901.56453	0.13642
1899.63596	0.13586
1897.70740	0.13519
1895.77883	0.13452
1893.85027	0.13399
1891.92171	0.13347
1889.99314	0.13281
1888.06458	0.13206
1886.13601	0.13134
1884.20745	0.13072
1882.27888	0.13030
1880.35032	0.12988
1878.42175	0.12927
1876.49319	0.12864
1874.56463	0.12809
1872.63606	0.12758
1870.70750	0.12708
1868.77893	0.12664
1866.85037	0.12620
1864.92180	0.12577
1862.99324	0.12539
1861.06467	0.12487
1859.13611	0.12418
1857.20755	0.12346
1855.27898	0.12283
1853.35042	0.12228
1851.42185	0.12188
1849.49329	0.12168
1847.56472	0.12150
1845.63616	0.12127
1843.70759	0.12103
1841.77903	0.12071
1839.85047	0.12033
1837.92190	0.11998
1835.99334	0.11970
1834.06477	0.11939
1832.13621	0.11908
1830.20764	0.11876
1828.27908	0.11847
1826.35051	0.11823
1824.42195	0.11792
1822.49339	0.11747
1820.56482	0.11689
1818.63626	0.11631
1816.70769	0.11578
1814.77913	0.11532
1812.85056	0.11485
1810.92200	0.11429
1808.99343	0.11382
1807.06487	0.11340
1805.13631	0.11307
1803.20774	0.11303
1801.27918	0.11341
1799.35061	0.11389
1797.42205	0.11429
1795.49348	0.11466
1793.56492	0.11495
1791.63635	0.11533
1789.70779	0.11564
1787.77923	0.11583
1785.85066	0.11603
1783.92210	0.11619
1781.99353	0.11631
1780.06497	0.11641
1778.13640	0.11647
1776.20784	0.11649
1774.27927	0.11667
1772.35071	0.11714
1770.42215	0.11771
1768.49358	0.11838
1766.56502	0.11910
1764.63645	0.11987
1762.70789	0.12110
1760.77932	0.12320
1758.85076	0.12579
1756.92220	0.12924
1754.99363	0.13324
1753.06507	0.13736
1751.13650	0.14313
1749.20794	0.15097
1747.27937	0.15841
1745.35081	0.16462
1743.42224	0.17011
1741.49368	0.17510
1739.56512	0.17951
1737.63655	0.18254
1735.70799	0.18459
1733.77942	0.18743
1731.85086	0.19003
1729.92229	0.19203
1727.99373	0.19449
1726.06516	0.19747
1724.13660	0.20144
1722.20804	0.20578
1720.27947	0.21007
1718.35091	0.21675
1716.42234	0.22827
1714.49378	0.23917
1712.56521	0.24871
1710.63665	0.25941
1708.70808	0.27205
1706.77952	0.29059
1704.85096	0.31547
1702.92239	0.33865
1700.99383	0.37104
1699.06526	0.42155
1697.13670	0.46902
1695.20813	0.51554
1693.27957	0.55066
1691.35100	0.57920
1689.42244	0.61335
1687.49388	0.64496
1685.56531	0.67793
1683.63675	0.73211
1681.70818	0.77341
1679.77962	0.79717
1677.85105	0.81891
1675.92249	0.84482
1673.99392	0.87264
1672.06536	0.89332
1670.13680	0.91551
1668.20823	0.94208
1666.27967	0.95847
1664.35110	0.97052
1662.42254	0.98429
1660.49397	0.99601
1658.56541	1.00423
1656.63684	1.00910
1654.70828	1.01119
1652.77972	1.01336
1650.85115	1.01622
1648.92259	1.01649
1646.99402	1.01446
1645.06546	1.01373
1643.13689	1.01344
1641.20833	1.01298
1639.27976	1.01166
1637.35120	1.00946
1635.42264	1.00708
1633.49407	1.00527
1631.56551	1.00386
1629.63694	1.00016
1627.70838	0.99209
1625.77981	0.98049
1623.85125	0.96476
1621.92269	0.94589
1619.99412	0.92997
1618.06556	0.90946
1616.13699	0.87555
1614.20843	0.84687
1612.27986	0.82461
1610.35130	0.80029
1608.42273	0.77464
1606.49417	0.75248
1604.56561	0.73497
1602.63704	0.72071
1600.70848	0.70991
1598.77991	0.70239
1596.85135	0.69706
1594.92278	0.69294
1592.99422	0.68994
1591.06565	0.68902
1589.13709	0.69106
1587.20853	0.69580
1585.27996	0.70252
1583.35140	0.71147
1581.42283	0.72192
1579.49427	0.73210
1577.56570	0.74480
1575.63714	0.76359
1573.70857	0.77746
1571.78001	0.78736
1569.85145	0.80275
1567.92288	0.82004
1565.99432	0.83297
1564.06575	0.84501
1562.13719	0.85494
1560.20862	0.86674
1558.28006	0.88957
1556.35149	0.90040
1554.42293	0.90479
1552.49437	0.90895
1550.56580	0.91228
1548.63724	0.91423
1546.70867	0.91509
1544.78011	0.91477
1542.85154	0.91194
1540.92298	0.90358
1538.99441	0.89402
1537.06585	0.89109
1535.13729	0.88804
1533.20872	0.88098
1531.28016	0.87301
1529.35159	0.86757
1527.42303	0.86262
1525.49446	0.85668
1523.56590	0.85137
1521.63733	0.84852
1519.70877	0.84886
1517.78021	0.84626
1515.85164	0.83677
1513.92308	0.82336
1511.99451	0.80893
1510.06595	0.79493
1508.13738	0.77164
1506.20882	0.72860
1504.28025	0.70550
1502.35169	0.69116
1500.42313	0.67454
1498.49456	0.65349
1496.56600	0.62853
1494.63743	0.60824
1492.70887	0.59355
1490.78030	0.57678
1488.85174	0.55588
1486.92317	0.54046
1484.99461	0.53080
1483.06605	0.52356
1481.13748	0.51818
1479.20892	0.51591
1477.28035	0.51741
1475.35179	0.52336
1473.42322	0.53701
1471.49466	0.55461
1469.56610	0.56555
1467.63753	0.57298
1465.70897	0.58197
1463.78040	0.59190
1461.85184	0.59833
1459.92327	0.60291
1457.99471	0.61113
1456.06614	0.62174
1454.13758	0.62530
1452.20902	0.62574
1450.28045	0.62530
1448.35189	0.62371
1446.42332	0.62048
1444.49476	0.61621
1442.56619	0.61123
1440.63763	0.60621
1438.70906	0.60081
1436.78050	0.59208
1434.85194	0.58157
1432.92337	0.57329
1430.99481	0.56528
1429.06624	0.55738
1427.13768	0.55194
1425.20911	0.54906
1423.28055	0.54815
1421.35198	0.54862
1419.42342	0.55077
1417.49486	0.55376
1415.56629	0.55471
1413.63773	0.55430
1411.70916	0.55370
1409.78060	0.55351
1407.85203	0.55394
1405.92347	0.55501
1403.99490	0.55635
1402.06634	0.55738
1400.13778	0.55834
1398.20921	0.55926
1396.28065	0.55964
1394.35208	0.56021
1392.42352	0.56207
1390.49495	0.56549
1388.56639	0.57212
1386.63782	0.58332
1384.70926	0.59538
1382.78070	0.60614
1380.85213	0.61516
1378.92357	0.62012
1376.99500	0.61942
1375.06644	0.61275
1373.13787	0.60146
1371.20931	0.58849
1369.28074	0.57285
1367.35218	0.55503
1365.42362	0.53844
1363.49505	0.52217
1361.56649	0.50705
1359.63792	0.49678
1357.70936	0.48988
1355.78079	0.48448
1353.85223	0.48028
1351.92366	0.47695
1349.99510	0.47412
1348.06654	0.47181
1346.13797	0.47027
1344.20941	0.46979
1342.28084	0.47021
1340.35228	0.47147
1338.42371	0.47406
1336.49515	0.47806
1334.56659	0.48349
1332.63802	0.49045
1330.70946	0.49830
1328.78089	0.50540
1326.85233	0.51034
1324.92376	0.51310
1322.99520	0.51476
1321.06663	0.51633
1319.13807	0.51799
1317.20951	0.51920
1315.28094	0.51951
1313.35238	0.51933
1311.42381	0.51887
1309.49525	0.51762
1307.56668	0.51549
1305.63812	0.51288
1303.70955	0.50999
1301.78099	0.50679
1299.85243	0.50321
1297.92386	0.49919
1295.99530	0.49488
1294.06673	0.49109
1292.13817	0.48881
1290.20960	0.48813
1288.28104	0.48850
1286.35247	0.48946
1284.42391	0.49042
1282.49535	0.49106
1280.56678	0.49166
1278.63822	0.49266
1276.70965	0.49425
1274.78109	0.49661
1272.85252	0.49996
1270.92396	0.50404
1268.99539	0.50845
1267.06683	0.51284
1265.13827	0.51663
1263.20970	0.51932
1261.28114	0.52099
1259.35257	0.52234
1257.42401	0.52379
1255.49544	0.52546
1253.56688	0.52779
1251.63831	0.53088
1249.70975	0.53412
1247.78119	0.53713
1245.85262	0.53998
1243.92406	0.54240
1241.99549	0.54404
1240.06693	0.54475
1238.13836	0.54421
1236.20980	0.54217
1234.28123	0.53871
1232.35267	0.53397
1230.42411	0.52783
1228.49554	0.52023
1226.56698	0.51139
1224.63841	0.50163
1222.70985	0.49148
1220.78128	0.48158
1218.85272	0.47258
1216.92415	0.46498
1214.99559	0.45913
1213.06703	0.45566
1211.13846	0.45486
1209.20990	0.45568
1207.28133	0.45609
1205.35277	0.45458
1203.42420	0.45055
1201.49564	0.44420
1199.56708	0.43638
1197.63851	0.42822
1195.70995	0.42049
1193.78138	0.41358
1191.85282	0.40795
1189.92425	0.40385
1187.99569	0.40105
1186.06712	0.39950
1184.13856	0.39916
1182.21000	0.39993
1180.28143	0.40243
1178.35287	0.40717
1176.42430	0.41365
1174.49574	0.42136
1172.56717	0.43023
1170.63861	0.44063
1168.71004	0.45320
1166.78148	0.46820
1164.85292	0.48514
1162.92435	0.50229
1160.99579	0.51686
1159.06722	0.52605
1157.13866	0.52863
1155.21009	0.52499
1153.28153	0.51602
1151.35296	0.50342
1149.42440	0.48956
1147.49584	0.47613
1145.56727	0.46413
1143.63871	0.45462
1141.71014	0.44871
1139.78158	0.44661
1137.85301	0.44752
1135.92445	0.45081
1133.99588	0.45666
1132.06732	0.46562
1130.13876	0.47801
1128.21019	0.49318
1126.28163	0.50944
1124.35306	0.52537
1122.42450	0.54026
1120.49593	0.55335
1118.56737	0.56393
1116.63880	0.57135
1114.71024	0.57509
1112.78168	0.57543
1110.85311	0.57316
1108.92455	0.56952
1106.99598	0.56614
1105.06742	0.56358
1103.13885	0.56106
1101.21029	0.55861
1099.28172	0.55770
1097.35316	0.55943
1095.42460	0.56413
1093.49603	0.57196
1091.56747	0.58300
1089.63890	0.59742
1087.71034	0.61508
1085.78177	0.63476
1083.85321	0.65468
1081.92464	0.67268
1079.99608	0.68660
1078.06752	0.69549
1076.13895	0.69897
1074.21039	0.69627
1072.28182	0.68793
1070.35326	0.67654
1068.42469	0.66448
1066.49613	0.65203
1064.56756	0.63945
1062.63900	0.62789
1060.71044	0.61721
1058.78187	0.60597
1056.85331	0.59439
1054.92474	0.58411
1052.99618	0.57604
1051.06761	0.57012
1049.13905	0.56640
1047.21049	0.56554
1045.28192	0.56788
1043.35336	0.57311
1041.42479	0.58080
1039.49623	0.58950
1037.56766	0.59706
1035.63910	0.60280
1033.71053	0.60685
1031.78197	0.60845
1029.85341	0.60646
1027.92484	0.60098
1025.99628	0.59320
1024.06771	0.58390
1022.13915	0.57393
1020.21058	0.56480
1018.28202	0.55686
1016.35345	0.54882
1014.42489	0.53892
1012.49633	0.52586
1010.56776	0.50983
1008.63920	0.49200
1006.71063	0.47374
1004.78207	0.45644
1002.85350	0.44092
1000.92494	0.42756
998.99637	0.41674
997.06781	0.40842
995.13925	0.40150
993.21068	0.39462
991.28212	0.38711
989.35355	0.37898
987.42499	0.37064
985.49642	0.36274
983.56786	0.35610
981.63929	0.35120
979.71073	0.34786
977.78217	0.34546
975.85360	0.34334
973.92504	0.34068
971.99647	0.33646
970.06791	0.33060
968.13934	0.32413
966.21078	0.31830
964.28221	0.31414
962.35365	0.31262
960.42509	0.31495
958.49652	0.32149
956.56796	0.32954
954.63939	0.33436
952.71083	0.33367
950.78226	0.32867
948.85370	0.32148
946.92513	0.31409
944.99657	0.30816
943.06801	0.30418
941.13944	0.30147
939.21088	0.29948
937.28231	0.29821
935.35375	0.29742
933.42518	0.29693
931.49662	0.29693
929.56805	0.29738
927.63949	0.29824
925.71093	0.29960
923.78236	0.30113
921.85380	0.30237
919.92523	0.30292
917.99667	0.30270
916.06810	0.30212
914.13954	0.30151
912.21098	0.30114
910.28241	0.30159
908.35385	0.30305
906.42528	0.30524
904.49672	0.30798
902.56815	0.31093
900.63959	0.31325
898.71102	0.31421
896.78246	0.31396
894.85390	0.31308
892.92533	0.31169
890.99677	0.30976
889.06820	0.30761
887.13964	0.30583
885.21107	0.30493
883.28251	0.30482
881.35394	0.30512
879.42538	0.30568
877.49682	0.30644
875.56825	0.30733
873.63969	0.30831
871.71112	0.30933
869.78256	0.31023
867.85399	0.31089
865.92543	0.31157
863.99686	0.31267
862.06830	0.31408
860.13974	0.31539
858.21117	0.31669
856.28261	0.31822
854.35404	0.31985
852.42548	0.32149
850.49691	0.32300
848.56835	0.32434
846.63978	0.32575
844.71122	0.32764
842.78266	0.33022
840.85409	0.33314
838.92553	0.33611
836.99696	0.33929
835.06840	0.34275
833.13983	0.34609
831.21127	0.34882
829.28270	0.35109
827.35414	0.35309
825.42558	0.35426
823.49701	0.35430
821.56845	0.35359
819.63988	0.35277
817.71132	0.35199
815.78275	0.35103
813.85419	0.35022
811.92562	0.34976
809.99706	0.34906
808.06850	0.34817
806.13993	0.34800
804.21137	0.34886
802.28280	0.35054
800.35424	0.35281
798.42567	0.35534
796.49711	0.35841
794.56854	0.36239
792.63998	0.36673
790.71142	0.37087
788.78285	0.37520
786.85429	0.37989
784.92572	0.38412
782.99716	0.38719
781.06859	0.38926
779.14003	0.39058
777.21147	0.39137
775.28290	0.39197
773.35434	0.39212
771.42577	0.39127
769.49721	0.38976
767.56864	0.38808
765.64008	0.38639
763.71151	0.38485
761.78295	0.38393
759.85439	0.38398
757.92582	0.38475
755.99726	0.38614
754.06869	0.38834
752.14013	0.39106
750.21156	0.39417
748.28300	0.39763
746.35443	0.40102
744.42587	0.40421
742.49731	0.40739
740.56874	0.41015
738.64018	0.41193
736.71161	0.41323
734.78305	0.41453
732.85448	0.41570
730.92592	0.41680
728.99735	0.41792
727.06879	0.41875
725.14023	0.41928
723.21166	0.42019
721.28310	0.42188
719.35453	0.42368
717.42597	0.42520
715.49740	0.42725
713.56884	0.43040
711.64027	0.43439
709.71171	0.43902
707.78315	0.44412
705.85458	0.44897
703.92602	0.45301
701.99745	0.45633
700.06889	0.45890
698.14032	0.46013
696.21176	0.45965
694.28319	0.45806
692.35463	0.45641
690.42607	0.45423
688.49750	0.44977
686.56894	0.44287
684.64037	0.43524
682.71181	0.42793
680.78324	0.42110
678.85468	0.41508
676.92611	0.41051
674.99755	0.40725
673.06899	0.40439
671.14042	0.40186
669.21186	0.40167
667.28329	0.40712
665.35473	0.41328
663.42616	0.41847
661.49760	0.42401
659.56903	0.43015
657.64047	0.43708
655.71191	0.44447
653.78334	0.45186
651.85478	0.45829
649.92621	0.46204
647.99765	0.46254
646.06908	0.46193
644.14052	0.46216
642.21195	0.46271
640.28339	0.46235
638.35483	0.45945
636.42626	0.45324
634.49770	0.44592
632.56913	0.43986
630.64057	0.43522
628.71200	0.43139
626.78344	0.42816
624.85488	0.42663
622.92631	0.42718
620.99775	0.42853
619.06918	0.43061
617.14062	0.43426
615.21205	0.43969
613.28349	0.44589
611.35492	0.45142
609.42636	0.45696
607.49780	0.46318
605.56923	0.46801
603.64067	0.47036
601.71210	0.47125
599.78354	0.47124
