3997.91406	0.41025
3995.98550	0.40935
3994.05693	0.40881
3992.12837	0.40982
3990.19980	0.41107
3988.27124	0.41039
3986.34268	0.40897
3984.41411	0.40871
3982.48555	0.40863
3980.55698	0.40805
3978.62842	0.40743
3976.69985	0.40646
3974.77129	0.40543
3972.84272	0.40486
3970.91416	0.40459
3968.98560	0.40502
3967.05703	0.40545
3965.12847	0.40487
3963.19990	0.40447
3961.27134	0.40423
3959.34277	0.40304
3957.41421	0.40173
3955.48564	0.40094
3953.55708	0.40069
3951.62852	0.40075
3949.69995	0.40034
3947.77139	0.39984
3945.84282	0.39993
3943.91426	0.39998
3941.98569	0.39943
3940.05713	0.39876
3938.12856	0.39905
3936.20000	0.40043
3934.27144	0.40157
3932.34287	0.40141
3930.41431	0.39998
3928.48574	0.39791
3926.55718	0.39629
3924.62861	0.39569
3922.70005	0.39579
3920.77148	0.39610
3918.84292	0.39597
3916.91436	0.39546
3914.98579	0.39490
3913.05723	0.39431
3911.12866	0.39426
3909.20010	0.39441
3907.27153	0.39364
3905.34297	0.39208
3903.41440	0.39171
3901.48584	0.39360
3899.55728	0.39521
3897.62871	0.39408
3895.70015	0.39156
3893.77158	0.39006
3891.84302	0.39019
3889.91445	0.38935
3887.98589	0.38708
3886.05733	0.38560
3884.12876	0.38484
3882.20020	0.38342
3880.27163	0.38335
3878.34307	0.38425
3876.41450	0.38393
3874.48594	0.38307
3872.55737	0.38260
3870.62881	0.38282
3868.70025	0.38303
3866.77168	0.38242
3864.84312	0.38174
3862.91455	0.38145
3860.98599	0.38186
3859.05742	0.38284
3857.12886	0.38324
3855.20029	0.38313
3853.27173	0.38352
3851.34317	0.38223
3849.41460	0.38034
3847.48604	0.37877
3845.55747	0.37743
3843.62891	0.37647
3841.70034	0.37542
3839.77178	0.37411
3837.84321	0.37366
3835.91465	0.37400
3833.98609	0.37489
3832.05752	0.37606
3830.12896	0.37607
3828.20039	0.37494
3826.27183	0.37373
3824.34326	0.37222
3822.41470	0.37070
3820.48613	0.36998
3818.55757	0.36843
3816.62901	0.36709
3814.70044	0.36768
3812.77188	0.36813
3810.84331	0.36768
3808.91475	0.36746
3806.98618	0.36833
3805.05762	0.36891
3803.12905	0.36894
3801.20049	0.36913
3799.27193	0.36815
3797.34336	0.36685
3795.41480	0.36675
3793.48623	0.36684
3791.55767	0.36621
3789.62910	0.36524
3787.70054	0.36421
3785.77197	0.36340
3783.84341	0.36282
3781.91485	0.36198
3779.98628	0.36179
3778.05772	0.36252
3776.12915	0.36224
3774.20059	0.36053
3772.27202	0.35883
3770.34346	0.35925
3768.41489	0.36088
3766.48633	0.36059
3764.55777	0.35859
3762.62920	0.35667
3760.70064	0.35596
3758.77207	0.35625
3756.84351	0.35563
3754.91494	0.35389
3752.98638	0.35248
3751.05781	0.35417
3749.12925	0.35637
3747.20069	0.35483
3745.27212	0.35176
3743.34356	0.34957
3741.41499	0.34790
3739.48643	0.34615
3737.55786	0.34605
3735.62930	0.34848
3733.70074	0.34889
3731.77217	0.34765
3729.84361	0.34694
3727.91504	0.34608
3725.98648	0.34560
3724.05791	0.34652
3722.12935	0.34778
3720.20078	0.34807
3718.27222	0.34760
3716.34366	0.34656
3714.41509	0.34494
3712.48653	0.34381
3710.55796	0.34444
3708.62940	0.34541
3706.70083	0.34606
3704.77227	0.34595
3702.84370	0.34472
3700.91514	0.34355
3698.98658	0.34335
3697.05801	0.34357
3695.12945	0.34358
3693.20088	0.34318
3691.27232	0.34271
3689.34375	0.34374
3687.41519	0.34576
3685.48662	0.34682
3683.55806	0.34755
3681.62950	0.34841
3679.70093	0.34949
3677.77237	0.35103
3675.84380	0.35330
3673.91524	0.35516
3671.98667	0.35693
3670.05811	0.36042
3668.12954	0.36305
3666.20098	0.36384
3664.27242	0.36508
3662.34385	0.36731
3660.41529	0.36942
3658.48672	0.37092
3656.55816	0.37310
3654.62959	0.37518
3652.70103	0.37611
3650.77246	0.37874
3648.84390	0.38665
3646.91534	0.39300
3644.98677	0.39578
3643.05821	0.39801
3641.12964	0.40070
3639.20108	0.40437
3637.27251	0.40864
3635.34395	0.41178
3633.41538	0.41309
3631.48682	0.41453
3629.55826	0.42060
3627.62969	0.42977
3625.70113	0.43454
3623.77256	0.43725
3621.84400	0.43977
3619.91543	0.44386
3617.98687	0.44946
3616.05830	0.45367
3614.12974	0.45723
3612.20118	0.46141
3610.27261	0.46609
3608.34405	0.47153
3606.41548	0.47698
3604.48692	0.48145
3602.55835	0.48528
3600.62979	0.48867
3598.70123	0.49165
3596.77266	0.49465
3594.84410	0.49943
3592.91553	0.50516
3590.98697	0.50872
3589.05840	0.51275
3587.12984	0.52127
3585.20127	0.52865
3583.27271	0.53266
3581.34415	0.53700
3579.41558	0.54297
3577.48702	0.54910
3575.55845	0.55443
3573.62989	0.55875
3571.70132	0.56155
3569.77276	0.56407
3567.84419	0.57028
3565.91563	0.57904
3563.98707	0.58466
3562.05850	0.58979
3560.12994	0.59602
3558.20137	0.60186
3556.27281	0.60590
3554.34424	0.60948
3552.41568	0.61553
3550.48711	0.62258
3548.55855	0.62834
3546.62999	0.63418
3544.70142	0.64098
3542.77286	0.64789
3540.84429	0.65486
3538.91573	0.66201
3536.98716	0.66880
3535.05860	0.67392
3533.13003	0.67705
3531.20147	0.67954
3529.27291	0.68287
3527.34434	0.68907
3525.41578	0.69856
3523.48721	0.70771
3521.55865	0.71346
3519.63008	0.71828
3517.70152	0.72448
3515.77295	0.73076
3513.84439	0.73762
3511.91583	0.74542
3509.98726	0.75125
3508.05870	0.75523
3506.13013	0.76136
3504.20157	0.77236
3502.27300	0.78535
3500.34444	0.79536
3498.41587	0.80398
3496.48731	0.81247
3494.55875	0.81904
3492.63018	0.82396
3490.70162	0.82943
3488.77305	0.83731
3486.84449	0.84561
3484.91592	0.84967
3482.98736	0.85196
3481.05879	0.85684
3479.13023	0.86072
3477.20167	0.86110
3475.27310	0.86181
3473.34454	0.86606
3471.41597	0.87222
3469.48741	0.87790
3467.55884	0.88123
3465.63028	0.88168
3463.70171	0.88339
3461.77315	0.88851
3459.84459	0.89428
3457.91602	0.89857
3455.98746	0.90157
3454.05889	0.90478
3452.13033	0.90911
3450.20176	0.91353
3448.27320	0.91759
3446.34464	0.92161
3444.41607	0.92460
3442.48751	0.92717
3440.55894	0.93032
3438.63038	0.93330
3436.70181	0.93587
3434.77325	0.93808
3432.84468	0.93931
3430.91612	0.93802
3428.98756	0.93605
3427.05899	0.93570
3425.13043	0.93540
3423.20186	0.93635
3421.27330	0.93911
3419.34473	0.93940
3417.41617	0.93664
3415.48760	0.93366
3413.55904	0.93218
3411.63048	0.93362
3409.70191	0.93625
3407.77335	0.93777
3405.84478	0.94174
3403.91622	0.94767
3401.98765	0.94896
3400.05909	0.94790
3398.13052	0.95029
3396.20196	0.95357
3394.27340	0.95516
3392.34483	0.95655
3390.41627	0.95644
3388.48770	0.95505
3386.55914	0.95534
3384.63057	0.95737
3382.70201	0.96024
3380.77344	0.96187
3378.84488	0.96006
3376.91632	0.95839
3374.98775	0.96092
3373.05919	0.96454
3371.13062	0.96585
3369.20206	0.96671
3367.27349	0.96748
3365.34493	0.96738
3363.41636	0.96818
3361.48780	0.96998
3359.55924	0.97137
3357.63067	0.97240
3355.70211	0.97355
3353.77354	0.97546
3351.84498	0.97835
3349.91641	0.98043
3347.98785	0.98145
3346.05928	0.98376
3344.13072	0.98677
3342.20216	0.98913
3340.27359	0.99382
3338.34503	1.00126
3336.41646	1.00534
3334.48790	1.00488
3332.55933	1.00613
3330.63077	1.01076
3328.70220	1.01568
3326.77364	1.02021
3324.84508	1.02388
3322.91651	1.02524
3320.98795	1.02763
3319.05938	1.03325
3317.13082	1.03712
3315.20225	1.03807
3313.27369	1.04070
3311.34513	1.04580
3309.41656	1.04968
3307.48800	1.05077
3305.55943	1.05230
3303.63087	1.05575
3301.70230	1.05896
3299.77374	1.05928
3297.84517	1.05691
3295.91661	1.05659
3293.98805	1.06034
3292.05948	1.06444
3290.13092	1.06581
3288.20235	1.06426
3286.27379	1.06287
3284.34522	1.06645
3282.41666	1.07347
3280.48809	1.07667
3278.55953	1.07540
3276.63097	1.07453
3274.70240	1.07412
3272.77384	1.07135
3270.84527	1.06710
3268.91671	1.06374
3266.98814	1.06105
3265.05958	1.05705
3263.13101	1.05167
3261.20245	1.04732
3259.27389	1.04308
3257.34532	1.03610
3255.41676	1.02769
3253.48819	1.02007
3251.55963	1.01293
3249.63106	1.00498
3247.70250	0.99742
3245.77393	0.99241
3243.84537	0.98814
3241.91681	0.98211
3239.98824	0.97539
3238.05968	0.96944
3236.13111	0.96394
3234.20255	0.95863
3232.27398	0.95389
3230.34542	0.94983
3228.41685	0.94609
3226.48829	0.94184
3224.55973	0.93614
3222.63116	0.93066
3220.70260	0.92770
3218.77403	0.92548
3216.84547	0.92150
3214.91690	0.91554
3212.98834	0.90845
3211.05977	0.90242
3209.13121	0.89807
3207.20265	0.89334
3205.27408	0.88724
3203.34552	0.88121
3201.41695	0.87630
3199.48839	0.87097
3197.55982	0.86431
3195.63126	0.85833
3193.70269	0.85402
3191.77413	0.84972
3189.84557	0.84465
3187.91700	0.83992
3185.98844	0.83601
3184.05987	0.83214
3182.13131	0.82783
3180.20274	0.82348
3178.27418	0.81952
3176.34562	0.81552
3174.41705	0.81035
3172.48849	0.80412
3170.55992	0.79880
3168.63136	0.79589
3166.70279	0.79419
3164.77423	0.79114
3162.84566	0.78691
3160.91710	0.78369
3158.98854	0.78091
3157.05997	0.77613
3155.13141	0.76987
3153.20284	0.76497
3151.27428	0.76247
3149.34571	0.76115
3147.41715	0.75906
3145.48858	0.75574
3143.56002	0.75261
3141.63146	0.74980
3139.70289	0.74639
3137.77433	0.74359
3135.84576	0.74299
3133.91720	0.74320
3131.98863	0.74270
3130.06007	0.74299
3128.13150	0.74449
3126.20294	0.74540
3124.27438	0.74492
3122.34581	0.74390
3120.41725	0.74398
3118.48868	0.74532
3116.56012	0.74609
3114.63155	0.74630
3112.70299	0.74697
3110.77442	0.74705
3108.84586	0.74627
3106.91730	0.74634
3104.98873	0.74713
3103.06017	0.74713
3101.13160	0.74647
3099.20304	0.74567
3097.27447	0.74432
3095.34591	0.74240
3093.41734	0.74072
3091.48878	0.73949
3089.56022	0.73749
3087.63165	0.73415
3085.70309	0.73102
3083.77452	0.72875
3081.84596	0.72545
3079.91739	0.72051
3077.98883	0.71625
3076.06026	0.71395
3074.13170	0.71221
3072.20314	0.70964
3070.27457	0.70625
3068.34601	0.70237
3066.41744	0.69871
3064.48888	0.69543
3062.56031	0.69191
3060.63175	0.68828
3058.70318	0.68454
3056.77462	0.68082
3054.84606	0.67744
3052.91749	0.67444
3050.98893	0.67139
3049.06036	0.66714
3047.13180	0.66228
3045.20323	0.65820
3043.27467	0.65429
3041.34610	0.65002
3039.41754	0.64615
3037.48898	0.64260
3035.56041	0.63852
3033.63185	0.63436
3031.70328	0.63117
3029.77472	0.62854
3027.84615	0.62525
3025.91759	0.62164
3023.98903	0.61943
3022.06046	0.61837
3020.13190	0.61672
3018.20333	0.61447
3016.27477	0.61238
3014.34620	0.61057
3012.41764	0.60875
3010.48907	0.60698
3008.56051	0.60563
3006.63195	0.60493
3004.70338	0.60480
3002.77482	0.60488
3000.84625	0.60528
2998.91769	0.60610
2996.98912	0.60650
2995.06056	0.60644
2993.13199	0.60760
2991.20343	0.61066
2989.27487	0.61481
2987.34630	0.61950
2985.41774	0.62417
2983.48917	0.62801
2981.56061	0.63151
2979.63204	0.63683
2977.70348	0.64462
2975.77491	0.65263
2973.84635	0.65959
2971.91779	0.66605
2969.98922	0.67237
2968.06066	0.67881
2966.13209	0.68561
2964.20353	0.69150
2962.27496	0.69493
2960.34640	0.69609
2958.41783	0.69545
2956.48927	0.69280
2954.56071	0.68855
2952.63214	0.68405
2950.70358	0.67999
2948.77501	0.67640
2946.84645	0.67502
2944.91788	0.67805
2942.98932	0.68452
2941.06075	0.69170
2939.13219	0.69951
2937.20363	0.70932
2935.27506	0.71966
2933.34650	0.72775
2931.41793	0.73365
2929.48937	0.73872
2927.56080	0.74310
2925.63224	0.74706
2923.70367	0.75101
2921.77511	0.75391
2919.84655	0.75401
2917.91798	0.74895
2915.98942	0.73636
2914.06085	0.71835
2912.13229	0.70079
2910.20372	0.68643
2908.27516	0.67449
2906.34659	0.66506
2904.41803	0.65827
2902.48947	0.65294
2900.56090	0.64848
2898.63234	0.64575
2896.70377	0.64475
2894.77521	0.64325
2892.84664	0.64004
2890.91808	0.63660
2888.98952	0.63360
2887.06095	0.63038
2885.13239	0.62768
2883.20382	0.62648
2881.27526	0.62596
2879.34669	0.62500
2877.41813	0.62395
2875.48956	0.62272
2873.56100	0.61950
2871.63244	0.61374
2869.70387	0.60715
2867.77531	0.60092
2865.84674	0.59526
2863.91818	0.59095
2861.98961	0.58911
2860.06105	0.59022
2858.13248	0.59409
2856.20392	0.59974
2854.27536	0.60580
2852.34679	0.61117
2850.41823	0.61240
2848.48966	0.60414
2846.56110	0.58669
2844.63253	0.56729
2842.70397	0.55141
2840.77540	0.53948
2838.84684	0.53038
2836.91828	0.52346
2834.98971	0.51804
2833.06115	0.51325
2831.13258	0.50857
2829.20402	0.50376
2827.27545	0.49909
2825.34689	0.49511
2823.41832	0.49155
2821.48976	0.48823
2819.56120	0.48539
2817.63263	0.48257
2815.70407	0.47928
2813.77550	0.47588
2811.84694	0.47275
2809.91837	0.46981
2807.98981	0.46722
2806.06124	0.46504
2804.13268	0.46302
2802.20412	0.46086
2800.27555	0.45835
2798.34699	0.45602
2796.41842	0.45443
2794.48986	0.45305
2792.56129	0.45108
2790.63273	0.44864
2788.70416	0.44641
2786.77560	0.44464
2784.84704	0.44312
2782.91847	0.44164
2780.98991	0.44018
2779.06134	0.43856
2777.13278	0.43653
2775.20421	0.43436
2773.27565	0.43260
2771.34708	0.43106
2769.41852	0.42900
2767.48996	0.42657
2765.56139	0.42440
2763.63283	0.42234
2761.70426	0.42041
2759.77570	0.41894
2757.84713	0.41764
2755.91857	0.41638
2753.99001	0.41547
2752.06144	0.41477
2750.13288	0.41390
2748.20431	0.41263
2746.27575	0.41103
2744.34718	0.40992
2742.41862	0.40982
2740.49005	0.40984
2738.56149	0.40886
2736.63293	0.40743
2734.70436	0.40676
2732.77580	0.40620
2730.84723	0.40468
2728.91867	0.40288
2726.99010	0.40152
2725.06154	0.40018
2723.13297	0.39847
2721.20441	0.39668
2719.27585	0.39507
2717.34728	0.39345
2715.41872	0.39148
2713.49015	0.38937
2711.56159	0.38741
2709.63302	0.38562
2707.70446	0.38423
2705.77589	0.38334
2703.84733	0.38247
2701.91877	0.38129
2699.99020	0.38022
2698.06164	0.37952
2696.13307	0.37905
2694.20451	0.37891
2692.27594	0.37905
2690.34738	0.37912
2688.41881	0.37896
2686.49025	0.37868
2684.56169	0.37824
2682.63312	0.37743
2680.70456	0.37636
2678.77599	0.37527
2676.84743	0.37421
2674.91886	0.37313
2672.99030	0.37211
2671.06173	0.37111
2669.13317	0.36989
2667.20461	0.36858
2665.27604	0.36739
2663.34748	0.36622
2661.41891	0.36478
2659.49035	0.36330
2657.56178	0.36240
2655.63322	0.36178
2653.70465	0.36090
2651.77609	0.35986
2649.84753	0.35893
2647.91896	0.35827
2645.99040	0.35795
2644.06183	0.35788
2642.13327	0.35778
2640.20470	0.35749
2638.27614	0.35718
2636.34757	0.35694
2634.41901	0.35667
2632.49045	0.35624
2630.56188	0.35571
2628.63332	0.35525
2626.70475	0.35500
2624.77619	0.35476
2622.84762	0.35397
2620.91906	0.35247
2618.99049	0.35082
2617.06193	0.34943
2615.13337	0.34818
2613.20480	0.34692
2611.27624	0.34546
2609.34767	0.34367
2607.41911	0.34180
2605.49054	0.34017
2603.56198	0.33900
2601.63342	0.33837
2599.70485	0.33800
2597.77629	0.33748
2595.84772	0.33661
2593.91916	0.33562
2591.99059	0.33484
2590.06203	0.33421
2588.13346	0.33354
2586.20490	0.33281
2584.27634	0.33214
2582.34777	0.33170
2580.41921	0.33140
2578.49064	0.33083
2576.56208	0.33002
2574.63351	0.32923
2572.70495	0.32828
2570.77638	0.32712
2568.84782	0.32590
2566.91926	0.32447
2564.99069	0.32295
2563.06213	0.32163
2561.13356	0.32033
2559.20500	0.31894
2557.27643	0.31771
2555.34787	0.31674
2553.41930	0.31598
2551.49074	0.31537
2549.56218	0.31468
2547.63361	0.31380
2545.70505	0.31312
2543.77648	0.31281
2541.84792	0.31266
2539.91935	0.31260
2537.99079	0.31266
2536.06222	0.31291
2534.13366	0.31321
2532.20510	0.31314
2530.27653	0.31271
2528.34797	0.31248
2526.41940	0.31255
2524.49084	0.31243
2522.56227	0.31202
2520.63371	0.31166
2518.70514	0.31119
2516.77658	0.31021
2514.84802	0.30903
2512.91945	0.30818
2510.99089	0.30749
2509.06232	0.30659
2507.13376	0.30558
2505.20519	0.30463
2503.27663	0.30372
2501.34806	0.30301
2499.41950	0.30240
2497.49094	0.30159
2495.56237	0.30051
2493.63381	0.29956
2491.70524	0.29914
2489.77668	0.29881
2487.84811	0.29809
2485.91955	0.29744
2483.99098	0.29704
2482.06242	0.29655
2480.13386	0.29601
2478.20529	0.29542
2476.27673	0.29450
2474.34816	0.29345
2472.41960	0.29256
2470.49103	0.29154
2468.56247	0.29024
2466.63391	0.28903
2464.70534	0.28809
2462.77678	0.28731
2460.84821	0.28643
2458.91965	0.28520
2456.99108	0.28361
2455.06252	0.28200
2453.13395	0.28078
2451.20539	0.27991
2449.27683	0.27910
2447.34826	0.27824
2445.41970	0.27727
2443.49113	0.27624
2441.56257	0.27531
2439.63400	0.27456
2437.70544	0.27395
2435.77687	0.27333
2433.84831	0.27261
2431.91975	0.27189
2429.99118	0.27135
2428.06262	0.27108
2426.13405	0.27087
2424.20549	0.27044
2422.27692	0.26975
2420.34836	0.26902
2418.41979	0.26848
2416.49123	0.26810
2414.56267	0.26782
2412.63410	0.26738
2410.70554	0.26658
2408.77697	0.26551
2406.84841	0.26432
2404.91984	0.26343
2402.99128	0.26310
2401.06271	0.26285
2399.13415	0.26225
2397.20559	0.26144
2395.27702	0.26066
2393.34846	0.26007
2391.41989	0.25976
2389.49133	0.25958
2387.56276	0.25928
2385.63420	0.25861
2383.70563	0.25747
2381.77707	0.25607
2379.84851	0.25472
2377.91994	0.25313
2375.99138	0.25072
2374.06281	0.24817
2372.13425	0.24670
2370.20568	0.24589
2368.27712	0.24409
2366.34855	0.24155
2364.41999	0.24030
2362.49143	0.23942
2360.56286	0.23839
2358.63430	0.23962
2356.70573	0.24170
2354.77717	0.24264
2352.84860	0.24364
2350.92004	0.24492
2348.99147	0.24496
2347.06291	0.24306
2345.13435	0.24010
2343.20578	0.23859
2341.27722	0.23907
2339.34865	0.23920
2337.42009	0.23812
2335.49152	0.23767
2333.56296	0.23795
2331.63440	0.23781
2329.70583	0.23814
2327.77727	0.23879
2325.84870	0.23856
2323.92014	0.23809
2321.99157	0.23812
2320.06301	0.23825
2318.13444	0.23845
2316.20588	0.23894
2314.27732	0.23939
2312.34875	0.23948
2310.42019	0.23947
2308.49162	0.23952
2306.56306	0.23947
2304.63449	0.23935
2302.70593	0.23928
2300.77736	0.23919
2298.84880	0.23886
2296.92024	0.23841
2294.99167	0.23816
2293.06311	0.23806
2291.13454	0.23786
2289.20598	0.23755
2287.27741	0.23730
2285.34885	0.23722
2283.42028	0.23712
2281.49172	0.23663
2279.56316	0.23580
2277.63459	0.23498
2275.70603	0.23443
2273.77746	0.23421
2271.84890	0.23424
2269.92033	0.23441
2267.99177	0.23451
2266.06320	0.23443
2264.13464	0.23426
2262.20608	0.23415
2260.27751	0.23403
2258.34895	0.23385
2256.42038	0.23381
2254.49182	0.23390
2252.56325	0.23390
2250.63469	0.23375
2248.70612	0.23347
2246.77756	0.23308
2244.84900	0.23265
2242.92043	0.23228
2240.99187	0.23187
2239.06330	0.23126
2237.13474	0.23064
2235.20617	0.23022
2233.27761	0.22994
2231.34904	0.22958
2229.42048	0.22907
2227.49192	0.22854
2225.56335	0.22818
2223.63479	0.22802
2221.70622	0.22797
2219.77766	0.22793
2217.84909	0.22789
2215.92053	0.22785
2213.99196	0.22794
2212.06340	0.22826
2210.13484	0.22864
2208.20627	0.22910
2206.27771	0.22988
2204.34914	0.23081
2202.42058	0.23152
2200.49201	0.23190
2198.56345	0.23207
2196.63488	0.23218
2194.70632	0.23246
2192.77776	0.23273
2190.84919	0.23266
2188.92063	0.23241
2186.99206	0.23233
2185.06350	0.23235
2183.13493	0.23225
2181.20637	0.23199
2179.27781	0.23170
2177.34924	0.23134
2175.42068	0.23106
2173.49211	0.23103
2171.56355	0.23103
2169.63498	0.23083
2167.70642	0.23062
2165.77785	0.23060
2163.84929	0.23062
2161.92073	0.23061
2159.99216	0.23069
2158.06360	0.23085
2156.13503	0.23095
2154.20647	0.23083
2152.27790	0.23046
2150.34934	0.23002
2148.42077	0.22983
2146.49221	0.22994
2144.56365	0.23001
2142.63508	0.22998
2140.70652	0.22997
2138.77795	0.22996
2136.84939	0.22995
2134.92082	0.22993
2132.99226	0.22966
2131.06369	0.22924
2129.13513	0.22903
2127.20657	0.22910
2125.27800	0.22929
2123.34944	0.22945
2121.42087	0.22952
2119.49231	0.22949
2117.56374	0.22941
2115.63518	0.22942
2113.70661	0.22962
2111.77805	0.22991
2109.84949	0.23010
2107.92092	0.23020
2105.99236	0.23038
2104.06379	0.23066
2102.13523	0.23084
2100.20666	0.23090
2098.27810	0.23100
2096.34953	0.23119
2094.42097	0.23145
2092.49241	0.23172
2090.56384	0.23192
2088.63528	0.23187
2086.70671	0.23170
2084.77815	0.23178
2082.84958	0.23200
2080.92102	0.23209
2078.99245	0.23206
2077.06389	0.23196
2075.13533	0.23175
2073.20676	0.23157
2071.27820	0.23162
2069.34963	0.23180
2067.42107	0.23200
2065.49250	0.23220
2063.56394	0.23235
2061.63537	0.23241
2059.70681	0.23242
2057.77825	0.23247
2055.84968	0.23259
2053.92112	0.23265
2051.99255	0.23263
2050.06399	0.23264
2048.13542	0.23259
2046.20686	0.23232
2044.27830	0.23203
2042.34973	0.23207
2040.42117	0.23213
2038.49260	0.23178
2036.56404	0.23119
2034.63547	0.23062
2032.70691	0.22999
2030.77834	0.22925
2028.84978	0.22861
2026.92122	0.22813
2024.99265	0.22766
2023.06409	0.22713
2021.13552	0.22660
2019.20696	0.22613
2017.27839	0.22574
2015.34983	0.22537
2013.42126	0.22500
2011.49270	0.22467
2009.56414	0.22455
2007.63557	0.22446
2005.70701	0.22417
2003.77844	0.22378
2001.84988	0.22352
1999.92131	0.22331
1997.99275	0.22300
1996.06418	0.22268
1994.13562	0.22252
1992.20706	0.22239
1990.27849	0.22215
1988.34993	0.22188
1986.42136	0.22156
1984.49280	0.22130
1982.56423	0.22114
1980.63567	0.22069
1978.70710	0.21991
1976.77854	0.21937
1974.84998	0.21916
1972.92141	0.21886
1970.99285	0.21838
1969.06428	0.21809
1967.13572	0.21809
1965.20715	0.21800
1963.27859	0.21782
1961.35002	0.21781
1959.42146	0.21791
1957.49290	0.21803
1955.56433	0.21815
1953.63577	0.21819
1951.70720	0.21817
1949.77864	0.21826
1947.85007	0.21845
1945.92151	0.21854
1943.99294	0.21861
1942.06438	0.21888
1940.13582	0.21912
1938.20725	0.21910
1936.27869	0.21893
1934.35012	0.21868
1932.42156	0.21834
1930.49299	0.21781
1928.56443	0.21708
1926.63586	0.21625
1924.70730	0.21547
1922.77874	0.21476
1920.85017	0.21398
1918.92161	0.21336
1916.99304	0.21296
1915.06448	0.21234
1913.13591	0.21162
1911.20735	0.21126
1909.27878	0.21121
1907.35022	0.21110
1905.42166	0.21097
1903.49309	0.21091
1901.56453	0.21085
1899.63596	0.21077
1897.70740	0.21076
1895.77883	0.21095
1893.85027	0.21113
1891.92171	0.21092
1889.99314	0.21070
1888.06458	0.21055
1886.13601	0.20996
1884.20745	0.20890
1882.27888	0.20768
1880.35032	0.20643
1878.42175	0.20505
1876.49319	0.20345
1874.56463	0.20164
1872.63606	0.19988
1870.70750	0.19825
1868.77893	0.19664
1866.85037	0.19525
1864.92180	0.19416
1862.99324	0.19320
1861.06467	0.19232
1859.13611	0.19168
1857.20755	0.19137
1855.27898	0.19126
1853.35042	0.19130
1851.42185	0.19153
1849.49329	0.19192
1847.56472	0.19224
1845.63616	0.19264
1843.70759	0.19360
1841.77903	0.19440
1839.85047	0.19458
1837.92190	0.19459
1835.99334	0.19460
1834.06477	0.19424
1832.13621	0.19358
1830.20764	0.19303
1828.27908	0.19254
1826.35051	0.19171
1824.42195	0.19057
1822.49339	0.18922
1820.56482	0.18778
1818.63626	0.18661
1816.70769	0.18581
1814.77913	0.18516
1812.85056	0.18462
1810.92200	0.18431
1808.99343	0.18419
1807.06487	0.18409
1805.13631	0.18407
1803.20774	0.18423
1801.27918	0.18498
1799.35061	0.18633
1797.42205	0.18738
1795.49348	0.18783
1793.56492	0.18821
1791.63635	0.18908
1789.70779	0.18947
1787.77923	0.18933
1785.85066	0.18918
1783.92210	0.18885
1781.99353	0.18843
1780.06497	0.18807
1778.13640	0.18749
1776.20784	0.18651
1774.27927	0.18556
1772.35071	0.18518
1770.42215	0.18521
1768.49358	0.18529
1766.56502	0.18537
1764.63645	0.18539
1762.70789	0.18593
1760.77932	0.18751
1758.85076	0.18962
1756.92220	0.19266
1754.99363	0.19595
1753.06507	0.19912
1751.13650	0.20429
1749.20794	0.21163
1747.27937	0.21799
1745.35081	0.22303
1743.42224	0.22752
1741.49368	0.23179
1739.56512	0.23579
1737.63655	0.23831
1735.70799	0.23987
1733.77942	0.24312
1731.85086	0.24633
1729.92229	0.24845
1727.99373	0.25081
1726.06516	0.25348
1724.13660	0.25733
1722.20804	0.26168
1720.27947	0.26591
1718.35091	0.27332
1716.42234	0.28722
1714.49378	0.29956
1712.56521	0.30935
1710.63665	0.32016
1708.70808	0.33304
1706.77952	0.35182
1704.85096	0.37661
1702.92239	0.39940
1700.99383	0.43217
1699.06526	0.48444
1697.13670	0.53396
1695.20813	0.58291
1693.27957	0.61969
1691.35100	0.64955
1689.42244	0.68667
1687.49388	0.72229
1685.56531	0.76014
1683.63675	0.82282
1681.70818	0.87123
1679.77962	0.90078
1677.85105	0.92893
1675.92249	0.96223
1673.99392	0.99852
1672.06536	1.02623
1670.13680	1.05601
1668.20823	1.09078
1666.27967	1.11131
1664.35110	1.12761
1662.42254	1.14959
1660.49397	1.16725
1658.56541	1.17577
1656.63684	1.17973
1654.70828	1.18502
1652.77972	1.19530
1650.85115	1.19880
1648.92259	1.19809
1646.99402	1.19739
1645.06546	1.19723
1643.13689	1.19601
1641.20833	1.19527
1639.27976	1.19479
1637.35120	1.19624
1635.42264	1.20015
1633.49407	1.19930
1631.56551	1.19526
1629.63694	1.18907
1627.70838	1.18149
1625.77981	1.17231
1623.85125	1.15793
1621.92269	1.13769
1619.99412	1.11745
1618.06556	1.09149
1616.13699	1.05289
1614.20843	1.02006
1612.27986	0.99299
1610.35130	0.96289
1608.42273	0.93078
1606.49417	0.90295
1604.56561	0.88050
1602.63704	0.86111
1600.70848	0.84593
1598.77991	0.83531
1596.85135	0.82729
1594.92278	0.82087
1592.99422	0.81636
1591.06565	0.81406
1589.13709	0.81414
1587.20853	0.81714
1585.27996	0.82312
1583.35140	0.83184
1581.42283	0.84173
1579.49427	0.85102
1577.56570	0.86357
1575.63714	0.88376
1573.70857	0.89839
1571.78001	0.90886
1569.85145	0.92722
1567.92288	0.94901
1565.99432	0.96531
1564.06575	0.98028
1562.13719	0.99251
1560.20862	1.00861
1558.28006	1.04338
1556.35149	1.05817
1554.42293	1.06253
1552.49437	1.06774
1550.56580	1.07228
1548.63724	1.07485
1546.70867	1.07535
1544.78011	1.07433
1542.85154	1.07150
1540.92298	1.06506
1538.99441	1.05795
1537.06585	1.05456
1535.13729	1.05032
1533.20872	1.04305
1531.28016	1.03456
1529.35159	1.02731
1527.42303	1.02000
1525.49446	1.01287
1523.56590	1.00952
1521.63733	1.00950
1519.70877	1.00876
1517.78021	1.00321
1515.85164	0.99179
1513.92308	0.97667
1511.99451	0.95887
1510.06595	0.93967
1508.13738	0.90997
1506.20882	0.86355
1504.28025	0.83985
1502.35169	0.82373
1500.42313	0.80386
1498.49456	0.77811
1496.56600	0.74863
1494.63743	0.72625
1492.70887	0.71069
1490.78030	0.69235
1488.85174	0.66892
1486.92317	0.65197
1484.99461	0.64142
1483.06605	0.63331
1481.13748	0.62701
1479.20892	0.62405
1477.28035	0.62538
1475.35179	0.63117
1473.42322	0.64461
1471.49466	0.66231
1469.56610	0.67321
1467.63753	0.68060
1465.70897	0.68975
1463.78040	0.70013
1461.85184	0.70696
1459.92327	0.71174
1457.99471	0.72186
1456.06614	0.73711
1454.13758	0.74329
1452.20902	0.74518
1450.28045	0.74616
1448.35189	0.74667
1446.42332	0.74636
1444.49476	0.74449
1442.56619	0.74098
1440.63763	0.73662
1438.70906	0.73131
1436.78050	0.72253
1434.85194	0.71167
1432.92337	0.70238
1430.99481	0.69224
1429.06624	0.68113
1427.13768	0.67271
1425.20911	0.66679
1423.28055	0.66212
1421.35198	0.65901
1419.42342	0.65776
1417.49486	0.65729
1415.56629	0.65557
1413.63773	0.65268
1411.70916	0.64927
1409.78060	0.64623
1407.85203	0.64423
1405.92347	0.64381
1403.99490	0.64510
1402.06634	0.64673
1400.13778	0.64856
1398.20921	0.65106
1396.28065	0.65390
1394.35208	0.65744
1392.42352	0.66168
1390.49495	0.66712
1388.56639	0.67740
1386.63782	0.69461
1384.70926	0.71242
1382.78070	0.72782
1380.85213	0.74077
1378.92357	0.74825
1376.99500	0.74801
1375.06644	0.73888
1373.13787	0.72286
1371.20931	0.70516
1369.28074	0.68430
1367.35218	0.66064
1365.42362	0.63920
1363.49505	0.61881
1361.56649	0.59989
1359.63792	0.58722
1357.70936	0.57931
1355.78079	0.57384
1353.85223	0.57023
1351.92366	0.56784
1349.99510	0.56627
1348.06654	0.56535
1346.13797	0.56478
1344.20941	0.56470
1342.28084	0.56565
1340.35228	0.56821
1338.42371	0.57226
1336.49515	0.57735
1334.56659	0.58424
1332.63802	0.59332
1330.70946	0.60334
1328.78089	0.61193
1326.85233	0.61748
1324.92376	0.62006
1322.99520	0.62124
1321.06663	0.62258
1319.13807	0.62422
1317.20951	0.62559
1315.28094	0.62652
1313.35238	0.62724
1311.42381	0.62757
1309.49525	0.62702
1307.56668	0.62535
1305.63812	0.62277
1303.70955	0.61992
1301.78099	0.61707
1299.85243	0.61342
1297.92386	0.60809
1295.99530	0.60178
1294.06673	0.59651
1292.13817	0.59342
1290.20960	0.59213
1288.28104	0.59164
1286.35247	0.59153
1284.42391	0.59170
1282.49535	0.59179
1280.56678	0.59181
1278.63822	0.59252
1276.70965	0.59451
1274.78109	0.59763
1272.85252	0.60195
1270.92396	0.60768
1268.99539	0.61419
1267.06683	0.62084
1265.13827	0.62688
1263.20970	0.63092
1261.28114	0.63257
1259.35257	0.63303
1257.42401	0.63361
1255.49544	0.63462
1253.56688	0.63586
1251.63831	0.63730
1249.70975	0.63897
1247.78119	0.64087
1245.85262	0.64284
1243.92406	0.64435
1241.99549	0.64501
1240.06693	0.64501
1238.13836	0.64448
1236.20980	0.64294
1234.28123	0.63996
1232.35267	0.63554
1230.42411	0.62986
1228.49554	0.62312
1226.56698	0.61518
1224.63841	0.60579
1222.70985	0.59549
1220.78128	0.58526
1218.85272	0.57574
1216.92415	0.56752
1214.99559	0.56165
1213.06703	0.55900
1211.13846	0.55914
1209.20990	0.56045
1207.28133	0.56086
1205.35277	0.55823
1203.42420	0.55153
1201.49564	0.54176
1199.56708	0.53039
1197.63851	0.51865
1195.70995	0.50766
1193.78138	0.49807
1191.85282	0.49043
1189.92425	0.48527
1187.99569	0.48235
1186.06712	0.48118
1184.13856	0.48179
1182.21000	0.48463
1180.28143	0.49009
1178.35287	0.49815
1176.42430	0.50840
1174.49574	0.52017
1172.56717	0.53289
1170.63861	0.54699
1168.71004	0.56351
1166.78148	0.58272
1164.85292	0.60327
1162.92435	0.62237
1160.99579	0.63746
1159.06722	0.64680
1157.13866	0.64878
1155.21009	0.64304
1153.28153	0.63122
1151.35296	0.61528
1149.42440	0.59703
1147.49584	0.57864
1145.56727	0.56230
1143.63871	0.55006
1141.71014	0.54290
1139.78158	0.54038
1137.85301	0.54185
1135.92445	0.54665
1133.99588	0.55469
1132.06732	0.56721
1130.13876	0.58476
1128.21019	0.60521
1126.28163	0.62570
1124.35306	0.64454
1122.42450	0.66130
1120.49593	0.67606
1118.56737	0.68801
1116.63880	0.69498
1114.71024	0.69551
1112.78168	0.69103
1110.85311	0.68494
1108.92455	0.67893
1106.99598	0.67254
1105.06742	0.66581
1103.13885	0.66025
1101.21029	0.65729
1099.28172	0.65732
1097.35316	0.66056
1095.42460	0.66791
1093.49603	0.67994
1091.56747	0.69620
1089.63890	0.71584
1087.71034	0.73843
1085.78177	0.76384
1083.85321	0.79043
1081.92464	0.81470
1079.99608	0.83345
1078.06752	0.84526
1076.13895	0.84970
1074.21039	0.84582
1072.28182	0.83448
1070.35326	0.81980
1068.42469	0.80518
1066.49613	0.79134
1064.56756	0.77742
1062.63900	0.76317
1060.71044	0.74968
1058.78187	0.73704
1056.85331	0.72470
1054.92474	0.71351
1052.99618	0.70495
1051.06761	0.69955
1049.13905	0.69709
1047.21049	0.69806
1045.28192	0.70334
1043.35336	0.71276
1041.42479	0.72443
1039.49623	0.73585
1037.56766	0.74551
1035.63910	0.75240
1033.71053	0.75571
1031.78197	0.75507
1029.85341	0.75058
1027.92484	0.74314
1025.99628	0.73345
1024.06771	0.72224
1022.13915	0.71139
1020.21058	0.70235
1018.28202	0.69422
1016.35345	0.68511
1014.42489	0.67342
1012.49633	0.65749
1010.56776	0.63668
1008.63920	0.61243
1006.71063	0.58725
1004.78207	0.56352
1002.85350	0.54238
1000.92494	0.52393
998.99637	0.50880
997.06781	0.49711
995.13925	0.48717
993.21068	0.47727
991.28212	0.46662
989.35355	0.45485
987.42499	0.44252
985.49642	0.43089
983.56786	0.42102
981.63929	0.41344
979.71073	0.40823
977.78217	0.40465
975.85360	0.40148
973.92504	0.39720
971.99647	0.39068
970.06791	0.38239
968.13934	0.37391
966.21078	0.36646
964.28221	0.36134
962.35365	0.36040
960.42509	0.36518
958.49652	0.37514
956.56796	0.38592
954.63939	0.39145
952.71083	0.38912
950.78226	0.38063
948.85370	0.36961
946.92513	0.35940
944.99657	0.35152
943.06801	0.34630
941.13944	0.34331
939.21088	0.34157
937.28231	0.34051
935.35375	0.34026
933.42518	0.34128
931.49662	0.34370
929.56805	0.34692
927.63949	0.35051
925.71093	0.35459
923.78236	0.35900
921.85380	0.36308
919.92523	0.36610
917.99667	0.36767
916.06810	0.36810
914.13954	0.36834
912.21098	0.36919
910.28241	0.37081
908.35385	0.37313
906.42528	0.37634
904.49672	0.38043
902.56815	0.38474
900.63959	0.38835
898.71102	0.39061
896.78246	0.39133
894.85390	0.39080
892.92533	0.38952
890.99677	0.38795
889.06820	0.38659
887.13964	0.38588
885.21107	0.38606
883.28251	0.38719
881.35394	0.38908
879.42538	0.39142
877.49682	0.39420
875.56825	0.39741
873.63969	0.40052
871.71112	0.40317
869.78256	0.40561
867.85399	0.40816
865.92543	0.41072
863.99686	0.41309
862.06830	0.41559
860.13974	0.41840
858.21117	0.42155
856.28261	0.42507
854.35404	0.42846
852.42548	0.43147
850.49691	0.43443
848.56835	0.43745
846.63978	0.44041
844.71122	0.44353
842.78266	0.44735
840.85409	0.45209
838.92553	0.45714
836.99696	0.46168
835.06840	0.46588
833.13983	0.47022
831.21127	0.47425
829.28270	0.47744
827.35414	0.48022
825.42558	0.48278
823.49701	0.48449
821.56845	0.48573
819.63988	0.48689
817.71132	0.48725
815.78275	0.48690
813.85419	0.48648
811.92562	0.48602
809.99706	0.48500
808.06850	0.48319
806.13993	0.48136
804.21137	0.48024
802.28280	0.47994
800.35424	0.48008
798.42567	0.48000
796.49711	0.47981
794.56854	0.48035
792.63998	0.48207
790.71142	0.48479
788.78285	0.48847
786.85429	0.49285
784.92572	0.49749
782.99716	0.50256
781.06859	0.50790
779.14003	0.51290
777.21147	0.51754
775.28290	0.52222
773.35434	0.52700
771.42577	0.53162
769.49721	0.53553
767.56864	0.53839
765.64008	0.54034
763.71151	0.54151
761.78295	0.54258
759.85439	0.54417
757.92582	0.54553
755.99726	0.54624
754.06869	0.54713
752.14013	0.54856
750.21156	0.54962
748.28300	0.55018
746.35443	0.55108
744.42587	0.55196
742.49731	0.55272
740.56874	0.55433
738.64018	0.55644
736.71161	0.55857
734.78305	0.56190
732.85448	0.56690
730.92592	0.57280
728.99735	0.57908
727.06879	0.58489
725.14023	0.58942
723.21166	0.59336
721.28310	0.59752
719.35453	0.60150
717.42597	0.60476
715.49740	0.60778
713.56884	0.61084
711.64027	0.61338
709.71171	0.61496
707.78315	0.61584
705.85458	0.61572
703.92602	0.61403
701.99745	0.61124
700.06889	0.60761
698.14032	0.60324
696.21176	0.59952
694.28319	0.59744
692.35463	0.59620
690.42607	0.59470
688.49750	0.59285
686.56894	0.59136
684.64037	0.59027
682.71181	0.58910
680.78324	0.58833
678.85468	0.58806
676.92611	0.58785
674.99755	0.58833
673.06899	0.58909
671.14042	0.58890
669.21186	0.58814
667.28329	0.58787
665.35473	0.58803
663.42616	0.58751
661.49760	0.58421
659.56903	0.57833
657.64047	0.57323
655.71191	0.56946
653.78334	0.56528
651.85478	0.55990
649.92621	0.55369
647.99765	0.54831
646.06908	0.54477
644.14052	0.54281
642.21195	0.54303
640.28339	0.54534
638.35483	0.54800
636.42626	0.54956
634.49770	0.55044
632.56913	0.55263
630.64057	0.55696
628.71200	0.56222
626.78344	0.56827
624.85488	0.57566
622.92631	0.58415
620.99775	0.59306
619.06918	0.60128
617.14062	0.60796
615.21205	0.61205
613.28349	0.61355
611.35492	0.61424
609.42636	0.61458
607.49780	0.61434
605.56923	0.61373
603.64067	0.61170
601.71210	0.60699
599.78354	0.60047
