3997.91406	0.52720
3995.98550	0.52614
3994.05693	0.52532
3992.12837	0.52497
3990.19980	0.52504
3988.27124	0.52498
3986.34268	0.52421
3984.41411	0.52339
3982.48555	0.52298
3980.55698	0.52238
3978.62842	0.52182
3976.69985	0.52211
3974.77129	0.52251
3972.84272	0.52176
3970.91416	0.52101
3968.98560	0.52124
3967.05703	0.52052
3965.12847	0.51827
3963.19990	0.51663
3961.27134	0.51686
3959.34277	0.51798
3957.41421	0.51784
3955.48564	0.51612
3953.55708	0.51479
3951.62852	0.51428
3949.69995	0.51433
3947.77139	0.51470
3945.84282	0.51354
3943.91426	0.51168
3941.98569	0.51187
3940.05713	0.51293
3938.12856	0.51269
3936.20000	0.51162
3934.27144	0.51096
3932.34287	0.51068
3930.41431	0.50986
3928.48574	0.50871
3926.55718	0.50777
3924.62861	0.50673
3922.70005	0.50569
3920.77148	0.50576
3918.84292	0.50738
3916.91436	0.50937
3914.98579	0.50979
3913.05723	0.50871
3911.12866	0.50745
3909.20010	0.50596
3907.27153	0.50377
3905.34297	0.50151
3903.41440	0.50047
3901.48584	0.50182
3899.55728	0.50472
3897.62871	0.50639
3895.70015	0.50612
3893.77158	0.50510
3891.84302	0.50301
3889.91445	0.49960
3887.98589	0.49782
3886.05733	0.49999
3884.12876	0.50255
3882.20020	0.50119
3880.27163	0.49943
3878.34307	0.49863
3876.41450	0.49764
3874.48594	0.49820
3872.55737	0.50101
3870.62881	0.50489
3868.70025	0.50562
3866.77168	0.50165
3864.84312	0.49800
3862.91455	0.49659
3860.98599	0.49530
3859.05742	0.49413
3857.12886	0.49349
3855.20029	0.49587
3853.27173	0.50325
3851.34317	0.50247
3849.41460	0.49701
3847.48604	0.49315
3845.55747	0.49086
3843.62891	0.48833
3841.70034	0.48602
3839.77178	0.48781
3837.84321	0.49169
3835.91465	0.49183
3833.98609	0.49221
3832.05752	0.49438
3830.12896	0.49443
3828.20039	0.49180
3826.27183	0.48950
3824.34326	0.48900
3822.41470	0.49044
3820.48613	0.49061
3818.55757	0.48651
3816.62901	0.48452
3814.70044	0.48613
3812.77188	0.48636
3810.84331	0.48500
3808.91475	0.48443
3806.98618	0.48616
3805.05762	0.48796
3803.12905	0.48939
3801.20049	0.49012
3799.27193	0.48659
3797.34336	0.48296
3795.41480	0.48232
3793.48623	0.48174
3791.55767	0.47981
3789.62910	0.47786
3787.70054	0.47650
3785.77197	0.47611
3783.84341	0.47628
3781.91485	0.47535
3779.98628	0.47420
3778.05772	0.47503
3776.12915	0.47634
3774.20059	0.47606
3772.27202	0.47513
3770.34346	0.47629
3768.41489	0.47818
3766.48633	0.47752
3764.55777	0.47500
3762.62920	0.47230
3760.70064	0.47131
3758.77207	0.47246
3756.84351	0.47271
3754.91494	0.47167
3752.98638	0.47161
3751.05781	0.47391
3749.12925	0.47436
3747.20069	0.47316
3745.27212	0.47431
3743.34356	0.47589
3741.41499	0.47500
3739.48643	0.47317
3737.55786	0.47209
3735.62930	0.47348
3733.70074	0.47487
3731.77217	0.47376
3729.84361	0.47161
3727.91504	0.47016
3725.98648	0.47047
3724.05791	0.47067
3722.12935	0.46922
3720.20078	0.46832
3718.27222	0.46877
3716.34366	0.46848
3714.41509	0.46698
3712.48653	0.46690
3710.55796	0.46815
3708.62940	0.46695
3706.70083	0.46497
3704.77227	0.46289
3702.84370	0.46182
3700.91514	0.46383
3698.98658	0.46613
3697.05801	0.46667
3695.12945	0.46642
3693.20088	0.46564
3691.27232	0.46556
3689.34375	0.47068
3687.41519	0.47664
3685.48662	0.47865
3683.55806	0.47966
3681.62950	0.48040
3679.70093	0.48009
3677.77237	0.48052
3675.84380	0.48791
3673.91524	0.49541
3671.98667	0.49620
3670.05811	0.49921
3668.12954	0.50350
3666.20098	0.50459
3664.27242	0.50620
3662.34385	0.50986
3660.41529	0.51346
3658.48672	0.51608
3656.55816	0.52058
3654.62959	0.52515
3652.70103	0.52633
3650.77246	0.52889
3648.84390	0.54029
3646.91534	0.54831
3644.98677	0.54936
3643.05821	0.55011
3641.12964	0.55286
3639.20108	0.55696
3637.27251	0.56044
3635.34395	0.56309
3633.41538	0.56597
3631.48682	0.56963
3629.55826	0.57908
3627.62969	0.59172
3625.70113	0.59603
3623.77256	0.59680
3621.84400	0.59822
3619.91543	0.60435
3617.98687	0.61464
3616.05830	0.62268
3614.12974	0.62955
3612.20118	0.63602
3610.27261	0.64121
3608.34405	0.64596
3606.41548	0.65004
3604.48692	0.65301
3602.55835	0.65698
3600.62979	0.66461
3598.70123	0.67358
3596.77266	0.68086
3594.84410	0.68830
3592.91553	0.69382
3590.98697	0.69538
3589.05840	0.69780
3587.12984	0.70512
3585.20127	0.71313
3583.27271	0.71939
3581.34415	0.72528
3579.41558	0.73085
3577.48702	0.73586
3575.55845	0.74162
3573.62989	0.74813
3571.70132	0.75323
3569.77276	0.75689
3567.84419	0.76366
3565.91563	0.77345
3563.98707	0.77817
3562.05850	0.78104
3560.12994	0.78547
3558.20137	0.79007
3556.27281	0.79351
3554.34424	0.79699
3552.41568	0.80283
3550.48711	0.81044
3548.55855	0.81778
3546.62999	0.82522
3544.70142	0.83422
3542.77286	0.84308
3540.84429	0.84972
3538.91573	0.85531
3536.98716	0.86133
3535.05860	0.86853
3533.13003	0.87605
3531.20147	0.88166
3529.27291	0.88588
3527.34434	0.89256
3525.41578	0.90295
3523.48721	0.91413
3521.55865	0.92263
3519.63008	0.92881
3517.70152	0.93578
3515.77295	0.94386
3513.84439	0.95219
3511.91583	0.95964
3509.98726	0.96593
3508.05870	0.97345
3506.13013	0.98243
3504.20157	0.99291
3502.27300	1.00348
3500.34444	1.01115
3498.41587	1.01719
3496.48731	1.02317
3494.55875	1.03008
3492.63018	1.03794
3490.70162	1.04678
3488.77305	1.05537
3486.84449	1.06076
3484.91592	1.06510
3482.98736	1.07037
3481.05879	1.07365
3479.13023	1.07519
3477.20167	1.07844
3475.27310	1.08287
3473.34454	1.08593
3471.41597	1.08828
3469.48741	1.09173
3467.55884	1.09586
3465.63028	1.09843
3463.70171	1.09973
3461.77315	1.10210
3459.84459	1.10519
3457.91602	1.10838
3455.98746	1.11244
3454.05889	1.11856
3452.13033	1.12748
3450.20176	1.13646
3448.27320	1.14147
3446.34464	1.14284
3444.41607	1.14385
3442.48751	1.14567
3440.55894	1.14907
3438.63038	1.15328
3436.70181	1.15326
3434.77325	1.14907
3432.84468	1.14851
3430.91612	1.15173
3428.98756	1.15071
3427.05899	1.14510
3425.13043	1.14033
3423.20186	1.13754
3421.27330	1.13817
3419.34473	1.14344
3417.41617	1.14960
3415.48760	1.15464
3413.55904	1.15606
3411.63048	1.15135
3409.70191	1.14490
3407.77335	1.13946
3405.84478	1.13615
3403.91622	1.13870
3401.98765	1.14346
3400.05909	1.14299
3398.13052	1.13994
3396.20196	1.14052
3394.27340	1.14354
3392.34483	1.14562
3390.41627	1.14762
3388.48770	1.15099
3386.55914	1.15322
3384.63057	1.15167
3382.70201	1.15011
3380.77344	1.15369
3378.84488	1.15987
3376.91632	1.16134
3374.98775	1.15736
3373.05919	1.15488
3371.13062	1.15861
3369.20206	1.16565
3367.27349	1.16882
3365.34493	1.16676
3363.41636	1.16508
3361.48780	1.16603
3359.55924	1.16799
3357.63067	1.16842
3355.70211	1.16648
3353.77354	1.16536
3351.84498	1.16576
3349.91641	1.16642
3347.98785	1.16882
3346.05928	1.17361
3344.13072	1.17940
3342.20216	1.18394
3340.27359	1.18650
3338.34503	1.18824
3336.41646	1.18884
3334.48790	1.18819
3332.55933	1.18815
3330.63077	1.19042
3328.70220	1.19540
3326.77364	1.20015
3324.84508	1.20095
3322.91651	1.20085
3320.98795	1.20612
3319.05938	1.21534
3317.13082	1.22155
3315.20225	1.22305
3313.27369	1.22411
3311.34513	1.22747
3309.41656	1.23160
3307.48800	1.23364
3305.55943	1.23406
3303.63087	1.23590
3301.70230	1.23804
3299.77374	1.23811
3297.84517	1.23882
3295.91661	1.24367
3293.98805	1.25228
3292.05948	1.25996
3290.13092	1.26204
3288.20235	1.25859
3286.27379	1.25303
3284.34522	1.25004
3282.41666	1.25113
3280.48809	1.25322
3278.55953	1.25382
3276.63097	1.25222
3274.70240	1.24732
3272.77384	1.24090
3270.84527	1.23739
3268.91671	1.23661
3266.98814	1.23644
3265.05958	1.23465
3263.13101	1.22821
3261.20245	1.22184
3259.27389	1.21937
3257.34532	1.21386
3255.41676	1.20225
3253.48819	1.19048
3251.55963	1.18316
3249.63106	1.17943
3247.70250	1.17457
3245.77393	1.16751
3243.84537	1.16245
3241.91681	1.15779
3239.98824	1.14931
3238.05968	1.13947
3236.13111	1.13131
3234.20255	1.12559
3232.27398	1.12248
3230.34542	1.12077
3228.41685	1.11953
3226.48829	1.11705
3224.55973	1.11110
3222.63116	1.10327
3220.70260	1.09779
3218.77403	1.09483
3216.84547	1.08991
3214.91690	1.08181
3212.98834	1.07424
3211.05977	1.07081
3209.13121	1.07148
3207.20265	1.07181
3205.27408	1.06837
3203.34552	1.06143
3201.41695	1.05215
3199.48839	1.04356
3197.55982	1.03808
3195.63126	1.03375
3193.70269	1.02848
3191.77413	1.02328
3189.84557	1.01798
3187.91700	1.01060
3185.98844	1.00296
3184.05987	0.99755
3182.13131	0.99254
3180.20274	0.98767
3178.27418	0.98447
3176.34562	0.98102
3174.41705	0.97617
3172.48849	0.97173
3170.55992	0.96759
3168.63136	0.96268
3166.70279	0.95814
3164.77423	0.95561
3162.84566	0.95490
3160.91710	0.95265
3158.98854	0.94625
3157.05997	0.93894
3155.13141	0.93481
3153.20284	0.93398
3151.27428	0.93469
3149.34571	0.93408
3147.41715	0.93067
3145.48858	0.92748
3143.56002	0.92650
3141.63146	0.92469
3139.70289	0.92047
3137.77433	0.91667
3135.84576	0.91474
3133.91720	0.91399
3131.98863	0.91420
3130.06007	0.91481
3128.13150	0.91541
3126.20294	0.91559
3124.27438	0.91448
3122.34581	0.91359
3120.41725	0.91535
3118.48868	0.91867
3116.56012	0.92006
3114.63155	0.91809
3112.70299	0.91550
3110.77442	0.91538
3108.84586	0.91673
3106.91730	0.91733
3104.98873	0.91723
3103.06017	0.91713
3101.13160	0.91667
3099.20304	0.91591
3097.27447	0.91508
3095.34591	0.91258
3093.41734	0.90862
3091.48878	0.90643
3089.56022	0.90702
3087.63165	0.90738
3085.70309	0.90440
3083.77452	0.89933
3081.84596	0.89503
3079.91739	0.89200
3077.98883	0.88959
3076.06026	0.88731
3074.13170	0.88532
3072.20314	0.88371
3070.27457	0.88200
3068.34601	0.88009
3066.41744	0.87705
3064.48888	0.87196
3062.56031	0.86665
3060.63175	0.86319
3058.70318	0.86047
3056.77462	0.85658
3054.84606	0.85180
3052.91749	0.84651
3050.98893	0.84036
3049.06036	0.83444
3047.13180	0.82969
3045.20323	0.82565
3043.27467	0.82247
3041.34610	0.82013
3039.41754	0.81761
3037.48898	0.81403
3035.56041	0.80883
3033.63185	0.80291
3031.70328	0.79821
3029.77472	0.79542
3027.84615	0.79345
3025.91759	0.79110
3023.98903	0.78843
3022.06046	0.78561
3020.13190	0.78263
3018.20333	0.77968
3016.27477	0.77628
3014.34620	0.77286
3012.41764	0.77127
3010.48907	0.77088
3008.56051	0.76904
3006.63195	0.76664
3004.70338	0.76623
3002.77482	0.76729
3000.84625	0.76809
2998.91769	0.76817
2996.98912	0.76850
2995.06056	0.77056
2993.13199	0.77391
2991.20343	0.77671
2989.27487	0.77905
2987.34630	0.78321
2985.41774	0.79038
2983.48917	0.79949
2981.56061	0.80813
2979.63204	0.81488
2977.70348	0.82072
2975.77491	0.82674
2973.84635	0.83359
2971.91779	0.84162
2969.98922	0.84998
2968.06066	0.85725
2966.13209	0.86214
2964.20353	0.86546
2962.27496	0.86912
2960.34640	0.87198
2958.41783	0.87099
2956.48927	0.86522
2954.56071	0.85684
2952.63214	0.84858
2950.70358	0.84278
2948.77501	0.84103
2946.84645	0.84272
2944.91788	0.84670
2942.98932	0.85238
2941.06075	0.85862
2939.13219	0.86530
2937.20363	0.87337
2935.27506	0.88225
2933.34650	0.88963
2931.41793	0.89446
2929.48937	0.89860
2927.56080	0.90374
2925.63224	0.90916
2923.70367	0.91298
2921.77511	0.91445
2919.84655	0.91430
2917.91798	0.91116
2915.98942	0.90116
2914.06085	0.88389
2912.13229	0.86488
2910.20372	0.84961
2908.27516	0.83853
2906.34659	0.83002
2904.41803	0.82364
2902.48947	0.81899
2900.56090	0.81513
2898.63234	0.81202
2896.70377	0.81037
2894.77521	0.80889
2892.84664	0.80544
2890.91808	0.80095
2888.98952	0.79725
2887.06095	0.79410
2885.13239	0.79134
2883.20382	0.79010
2881.27526	0.79052
2879.34669	0.79109
2877.41813	0.79057
2875.48956	0.78846
2873.56100	0.78408
2871.63244	0.77782
2869.70387	0.77109
2867.77531	0.76394
2865.84674	0.75641
2863.91818	0.75012
2861.98961	0.74686
2860.06105	0.74757
2858.13248	0.75135
2856.20392	0.75683
2854.27536	0.76423
2852.34679	0.77237
2850.41823	0.77485
2848.48966	0.76441
2846.56110	0.74307
2844.63253	0.72030
2842.70397	0.70171
2840.77540	0.68774
2838.84684	0.67808
2836.91828	0.67208
2834.98971	0.66804
2833.06115	0.66451
2831.13258	0.66102
2829.20402	0.65780
2827.27545	0.65512
2825.34689	0.65208
2823.41832	0.64818
2821.48976	0.64491
2819.56120	0.64269
2817.63263	0.64019
2815.70407	0.63680
2813.77550	0.63290
2811.84694	0.62893
2809.91837	0.62488
2807.98981	0.62082
2806.06124	0.61722
2804.13268	0.61401
2802.20412	0.61054
2800.27555	0.60648
2798.34699	0.60243
2796.41842	0.59894
2794.48986	0.59584
2792.56129	0.59265
2790.63273	0.58943
2788.70416	0.58673
2786.77560	0.58451
2784.84704	0.58243
2782.91847	0.58066
2780.98991	0.57911
2779.06134	0.57729
2777.13278	0.57551
2775.20421	0.57445
2773.27565	0.57417
2771.34708	0.57394
2769.41852	0.57311
2767.48996	0.57173
2765.56139	0.56999
2763.63283	0.56840
2761.70426	0.56769
2759.77570	0.56748
2757.84713	0.56677
2755.91857	0.56551
2753.99001	0.56415
2752.06144	0.56277
2750.13288	0.56130
2748.20431	0.55957
2746.27575	0.55774
2744.34718	0.55636
2742.41862	0.55513
2740.49005	0.55352
2738.56149	0.55141
2736.63293	0.54872
2734.70436	0.54591
2732.77580	0.54341
2730.84723	0.54109
2728.91867	0.53892
2726.99010	0.53680
2725.06154	0.53462
2723.13297	0.53246
2721.20441	0.53044
2719.27585	0.52871
2717.34728	0.52701
2715.41872	0.52488
2713.49015	0.52254
2711.56159	0.52057
2709.63302	0.51948
2707.70446	0.51893
2705.77589	0.51844
2703.84733	0.51827
2701.91877	0.51817
2699.99020	0.51761
2698.06164	0.51697
2696.13307	0.51650
2694.20451	0.51606
2692.27594	0.51583
2690.34738	0.51579
2688.41881	0.51556
2686.49025	0.51514
2684.56169	0.51462
2682.63312	0.51394
2680.70456	0.51312
2678.77599	0.51212
2676.84743	0.51087
2674.91886	0.50952
2672.99030	0.50802
2671.06173	0.50605
2669.13317	0.50400
2667.20461	0.50267
2665.27604	0.50175
2663.34748	0.50025
2661.41891	0.49809
2659.49035	0.49591
2657.56178	0.49432
2655.63322	0.49341
2653.70465	0.49222
2651.77609	0.49014
2649.84753	0.48824
2647.91896	0.48736
2645.99040	0.48671
2644.06183	0.48546
2642.13327	0.48384
2640.20470	0.48250
2638.27614	0.48192
2636.34757	0.48193
2634.41901	0.48177
2632.49045	0.48134
2630.56188	0.48081
2628.63332	0.48043
2626.70475	0.48066
2624.77619	0.48096
2622.84762	0.48061
2620.91906	0.48024
2618.99049	0.48033
2617.06193	0.48023
2615.13337	0.47949
2613.20480	0.47850
2611.27624	0.47777
2609.34767	0.47731
2607.41911	0.47672
2605.49054	0.47550
2603.56198	0.47382
2601.63342	0.47239
2599.70485	0.47105
2597.77629	0.46941
2595.84772	0.46796
2593.91916	0.46695
2591.99059	0.46588
2590.06203	0.46432
2588.13346	0.46231
2586.20490	0.46048
2584.27634	0.45923
2582.34777	0.45819
2580.41921	0.45677
2578.49064	0.45505
2576.56208	0.45382
2574.63351	0.45323
2572.70495	0.45251
2570.77638	0.45136
2568.84782	0.44993
2566.91926	0.44849
2564.99069	0.44746
2563.06213	0.44657
2561.13356	0.44548
2559.20500	0.44440
2557.27643	0.44345
2555.34787	0.44259
2553.41930	0.44173
2551.49074	0.44105
2549.56218	0.44079
2547.63361	0.44060
2545.70505	0.44004
2543.77648	0.43922
2541.84792	0.43862
2539.91935	0.43807
2537.99079	0.43714
2536.06222	0.43620
2534.13366	0.43578
2532.20510	0.43574
2530.27653	0.43541
2528.34797	0.43463
2526.41940	0.43403
2524.49084	0.43364
2522.56227	0.43303
2520.63371	0.43235
2518.70514	0.43160
2516.77658	0.43055
2514.84802	0.42950
2512.91945	0.42864
2510.99089	0.42785
2509.06232	0.42724
2507.13376	0.42703
2505.20519	0.42690
2503.27663	0.42654
2501.34806	0.42611
2499.41950	0.42564
2497.49094	0.42505
2495.56237	0.42457
2493.63381	0.42429
2491.70524	0.42396
2489.77668	0.42358
2487.84811	0.42355
2485.91955	0.42393
2483.99098	0.42418
2482.06242	0.42389
2480.13386	0.42347
2478.20529	0.42341
2476.27673	0.42333
2474.34816	0.42288
2472.41960	0.42249
2470.49103	0.42225
2468.56247	0.42174
2466.63391	0.42098
2464.70534	0.42022
2462.77678	0.41950
2460.84821	0.41892
2458.91965	0.41870
2456.99108	0.41867
2455.06252	0.41838
2453.13395	0.41770
2451.20539	0.41675
2449.27683	0.41571
2447.34826	0.41480
2445.41970	0.41402
2443.49113	0.41328
2441.56257	0.41247
2439.63400	0.41149
2437.70544	0.41045
2435.77687	0.40957
2433.84831	0.40898
2431.91975	0.40841
2429.99118	0.40776
2428.06262	0.40725
2426.13405	0.40671
2424.20549	0.40595
2422.27692	0.40525
2420.34836	0.40469
2418.41979	0.40402
2416.49123	0.40326
2414.56267	0.40272
2412.63410	0.40245
2410.70554	0.40221
2408.77697	0.40179
2406.84841	0.40113
2404.91984	0.40039
2402.99128	0.39997
2401.06271	0.39970
2399.13415	0.39910
2397.20559	0.39812
2395.27702	0.39710
2393.34846	0.39644
2391.41989	0.39620
2389.49133	0.39613
2387.56276	0.39583
2385.63420	0.39518
2383.70563	0.39447
2381.77707	0.39358
2379.84851	0.39213
2377.91994	0.39001
2375.99138	0.38718
2374.06281	0.38429
2372.13425	0.38231
2370.20568	0.38093
2368.27712	0.37905
2366.34855	0.37627
2364.41999	0.37225
2362.49143	0.36841
2360.56286	0.36842
2358.63430	0.37149
2356.70573	0.37433
2354.77717	0.37605
2352.84860	0.37699
2350.92004	0.37711
2348.99147	0.37596
2347.06291	0.37354
2345.13435	0.37063
2343.20578	0.36879
2341.27722	0.36797
2339.34865	0.36782
2337.42009	0.36878
2335.49152	0.36992
2333.56296	0.36982
2331.63440	0.36898
2329.70583	0.36933
2327.77727	0.37075
2325.84870	0.37236
2323.92014	0.37409
2321.99157	0.37508
2320.06301	0.37539
2318.13444	0.37606
2316.20588	0.37670
2314.27732	0.37651
2312.34875	0.37601
2310.42019	0.37642
2308.49162	0.37745
2306.56306	0.37806
2304.63449	0.37815
2302.70593	0.37797
2300.77736	0.37782
2298.84880	0.37806
2296.92024	0.37833
2294.99167	0.37827
2293.06311	0.37806
2291.13454	0.37795
2289.20598	0.37787
2287.27741	0.37770
2285.34885	0.37746
2283.42028	0.37701
2281.49172	0.37622
2279.56316	0.37536
2277.63459	0.37457
2275.70603	0.37377
2273.77746	0.37296
2271.84890	0.37227
2269.92033	0.37176
2267.99177	0.37125
2266.06320	0.37064
2264.13464	0.36992
2262.20608	0.36909
2260.27751	0.36839
2258.34895	0.36801
2256.42038	0.36778
2254.49182	0.36747
2252.56325	0.36719
2250.63469	0.36726
2248.70612	0.36766
2246.77756	0.36803
2244.84900	0.36816
2242.92043	0.36820
2240.99187	0.36834
2239.06330	0.36858
2237.13474	0.36857
2235.20617	0.36826
2233.27761	0.36803
2231.34904	0.36789
2229.42048	0.36750
2227.49192	0.36671
2225.56335	0.36582
2223.63479	0.36510
2221.70622	0.36430
2219.77766	0.36302
2217.84909	0.36135
2215.92053	0.35964
2213.99196	0.35782
2212.06340	0.35584
2210.13484	0.35405
2208.20627	0.35232
2206.27771	0.35018
2204.34914	0.34796
2202.42058	0.34612
2200.49201	0.34443
2198.56345	0.34273
2196.63488	0.34117
2194.70632	0.33988
2192.77776	0.33884
2190.84919	0.33802
2188.92063	0.33744
2186.99206	0.33714
2185.06350	0.33709
2183.13493	0.33710
2181.20637	0.33727
2179.27781	0.33776
2177.34924	0.33860
2175.42068	0.33990
2173.49211	0.34144
2171.56355	0.34278
2169.63498	0.34402
2167.70642	0.34545
2165.77785	0.34699
2163.84929	0.34837
2161.92073	0.34972
2159.99216	0.35118
2158.06360	0.35267
2156.13503	0.35396
2154.20647	0.35469
2152.27790	0.35480
2150.34934	0.35488
2148.42077	0.35541
2146.49221	0.35599
2144.56365	0.35593
2142.63508	0.35535
2140.70652	0.35480
2138.77795	0.35434
2136.84939	0.35363
2134.92082	0.35260
2132.99226	0.35129
2131.06369	0.34980
2129.13513	0.34841
2127.20657	0.34721
2125.27800	0.34596
2123.34944	0.34473
2121.42087	0.34374
2119.49231	0.34271
2117.56374	0.34162
2115.63518	0.34090
2113.70661	0.34050
2111.77805	0.34014
2109.84949	0.33983
2107.92092	0.33984
2105.99236	0.34028
2104.06379	0.34089
2102.13523	0.34151
2100.20666	0.34236
2098.27810	0.34340
2096.34953	0.34416
2094.42097	0.34474
2092.49241	0.34542
2090.56384	0.34596
2088.63528	0.34619
2086.70671	0.34630
2084.77815	0.34638
2082.84958	0.34629
2080.92102	0.34580
2078.99245	0.34492
2077.06389	0.34385
2075.13533	0.34277
2073.20676	0.34152
2071.27820	0.34000
2069.34963	0.33837
2067.42107	0.33662
2065.49250	0.33459
2063.56394	0.33235
2061.63537	0.32998
2059.70681	0.32761
2057.77825	0.32544
2055.84968	0.32341
2053.92112	0.32146
2051.99255	0.31983
2050.06399	0.31859
2048.13542	0.31747
2046.20686	0.31631
2044.27830	0.31543
2042.34973	0.31530
2040.42117	0.31573
2038.49260	0.31619
2036.56404	0.31664
2034.63547	0.31721
2032.70691	0.31800
2030.77834	0.31899
2028.84978	0.32005
2026.92122	0.32130
2024.99265	0.32279
2023.06409	0.32444
2021.13552	0.32602
2019.20696	0.32734
2017.27839	0.32857
2015.34983	0.32996
2013.42126	0.33118
2011.49270	0.33188
2009.56414	0.33209
2007.63557	0.33200
2005.70701	0.33161
2003.77844	0.33097
2001.84988	0.33009
1999.92131	0.32890
1997.99275	0.32749
1996.06418	0.32603
1994.13562	0.32457
1992.20706	0.32315
1990.27849	0.32172
1988.34993	0.32005
1986.42136	0.31830
1984.49280	0.31699
1982.56423	0.31609
1980.63567	0.31495
1978.70710	0.31353
1976.77854	0.31251
1974.84998	0.31209
1972.92141	0.31204
1970.99285	0.31213
1969.06428	0.31239
1967.13572	0.31289
1965.20715	0.31332
1963.27859	0.31365
1961.35002	0.31424
1959.42146	0.31507
1957.49290	0.31587
1955.56433	0.31667
1953.63577	0.31760
1951.70720	0.31862
1949.77864	0.31947
1947.85007	0.31999
1945.92151	0.32044
1943.99294	0.32104
1942.06438	0.32174
1940.13582	0.32210
1938.20725	0.32194
1936.27869	0.32147
1934.35012	0.32091
1932.42156	0.32036
1930.49299	0.31976
1928.56443	0.31889
1926.63586	0.31763
1924.70730	0.31616
1922.77874	0.31464
1920.85017	0.31294
1918.92161	0.31133
1916.99304	0.30995
1915.06448	0.30836
1913.13591	0.30655
1911.20735	0.30494
1909.27878	0.30376
1907.35022	0.30266
1905.42166	0.30147
1903.49309	0.30042
1901.56453	0.29958
1899.63596	0.29886
1897.70740	0.29824
1895.77883	0.29802
1893.85027	0.29822
1891.92171	0.29827
1889.99314	0.29831
1888.06458	0.29857
1886.13601	0.29881
1884.20745	0.29898
1882.27888	0.29902
1880.35032	0.29893
1878.42175	0.29881
1876.49319	0.29868
1874.56463	0.29849
1872.63606	0.29820
1870.70750	0.29796
1868.77893	0.29814
1866.85037	0.29833
1864.92180	0.29792
1862.99324	0.29726
1861.06467	0.29669
1859.13611	0.29633
1857.20755	0.29608
1855.27898	0.29581
1853.35042	0.29541
1851.42185	0.29492
1849.49329	0.29442
1847.56472	0.29367
1845.63616	0.29284
1843.70759	0.29233
1841.77903	0.29149
1839.85047	0.29018
1837.92190	0.28910
1835.99334	0.28847
1834.06477	0.28766
1832.13621	0.28669
1830.20764	0.28628
1828.27908	0.28626
1826.35051	0.28602
1824.42195	0.28602
1822.49339	0.28615
1820.56482	0.28607
1818.63626	0.28616
1816.70769	0.28654
1814.77913	0.28696
1812.85056	0.28755
1810.92200	0.28857
1808.99343	0.28954
1807.06487	0.29000
1805.13631	0.29018
1803.20774	0.29055
1801.27918	0.29166
1799.35061	0.29303
1797.42205	0.29369
1795.49348	0.29382
1793.56492	0.29437
1791.63635	0.29596
1789.70779	0.29681
1787.77923	0.29678
1785.85066	0.29697
1783.92210	0.29738
1781.99353	0.29788
1780.06497	0.29852
1778.13640	0.29874
1776.20784	0.29842
1774.27927	0.29852
1772.35071	0.29991
1770.42215	0.30135
1768.49358	0.30197
1766.56502	0.30229
1764.63645	0.30261
1762.70789	0.30395
1760.77932	0.30645
1758.85076	0.30900
1756.92220	0.31272
1754.99363	0.31689
1753.06507	0.32066
1751.13650	0.32667
1749.20794	0.33541
1747.27937	0.34287
1745.35081	0.34863
1743.42224	0.35403
1741.49368	0.35962
1739.56512	0.36500
1737.63655	0.36824
1735.70799	0.37026
1733.77942	0.37506
1731.85086	0.38019
1729.92229	0.38329
1727.99373	0.38634
1726.06516	0.38974
1724.13660	0.39425
1722.20804	0.39891
1720.27947	0.40299
1718.35091	0.41052
1716.42234	0.42633
1714.49378	0.44138
1712.56521	0.45333
1710.63665	0.46627
1708.70808	0.48179
1706.77952	0.50556
1704.85096	0.53886
1702.92239	0.56955
1700.99383	0.61061
1699.06526	0.67617
1697.13670	0.73799
1695.20813	0.79505
1693.27957	0.83509
1691.35100	0.86589
1689.42244	0.90326
1687.49388	0.93689
1685.56531	0.96778
1683.63675	1.01508
1681.70818	1.05069
1679.77962	1.06969
1677.85105	1.08392
1675.92249	1.09828
1673.99392	1.11559
1672.06536	1.13206
1670.13680	1.14780
1668.20823	1.15944
1666.27967	1.16218
1664.35110	1.16398
1662.42254	1.16907
1660.49397	1.17296
1658.56541	1.17332
1656.63684	1.17109
1654.70828	1.16836
1652.77972	1.16656
1650.85115	1.16403
1648.92259	1.15968
1646.99402	1.15411
1645.06546	1.15076
1643.13689	1.14779
1641.20833	1.14440
1639.27976	1.14031
1637.35120	1.13613
1635.42264	1.13202
1633.49407	1.12639
1631.56551	1.12008
1629.63694	1.11206
1627.70838	1.10212
1625.77981	1.09197
1623.85125	1.08105
1621.92269	1.06819
1619.99412	1.05557
1618.06556	1.03913
1616.13699	1.01407
1614.20843	0.99245
1612.27986	0.97487
1610.35130	0.95591
1608.42273	0.93628
1606.49417	0.92015
1604.56561	0.90886
1602.63704	0.90071
1600.70848	0.89496
1598.77991	0.89136
1596.85135	0.88989
1594.92278	0.89048
1592.99422	0.89253
1591.06565	0.89594
1589.13709	0.90114
1587.20853	0.90875
1585.27996	0.91878
1583.35140	0.93033
1581.42283	0.94210
1579.49427	0.95348
1577.56570	0.96860
1575.63714	0.99076
1573.70857	1.00565
1571.78001	1.01486
1569.85145	1.02820
1567.92288	1.04218
1565.99432	1.05231
1564.06575	1.06200
1562.13719	1.06942
1560.20862	1.07633
1558.28006	1.08733
1556.35149	1.09170
1554.42293	1.09465
1552.49437	1.09802
1550.56580	1.10008
1548.63724	1.09982
1546.70867	1.09725
1544.78011	1.09297
1542.85154	1.08900
1540.92298	1.08796
1538.99441	1.08542
1537.06585	1.08130
1535.13729	1.07594
1533.20872	1.06821
1531.28016	1.06120
1529.35159	1.05649
1527.42303	1.05251
1525.49446	1.04886
1523.56590	1.04561
1521.63733	1.04188
1519.70877	1.03913
1517.78021	1.03537
1515.85164	1.02642
1513.92308	1.01372
1511.99451	1.00043
1510.06595	0.98787
1508.13738	0.96744
1506.20882	0.92962
1504.28025	0.90827
1502.35169	0.89399
1500.42313	0.87691
1498.49456	0.85562
1496.56600	0.83185
1494.63743	0.81296
1492.70887	0.79906
1490.78030	0.78275
1488.85174	0.76203
1486.92317	0.74740
1484.99461	0.73894
1483.06605	0.73307
1481.13748	0.72936
1479.20892	0.72867
1477.28035	0.73190
1475.35179	0.73999
1473.42322	0.75646
1471.49466	0.77745
1469.56610	0.79044
1467.63753	0.79938
1465.70897	0.81100
1463.78040	0.82409
1461.85184	0.83189
1459.92327	0.83704
1457.99471	0.84909
1456.06614	0.86776
1454.13758	0.87561
1452.20902	0.87850
1450.28045	0.88091
1448.35189	0.88308
1446.42332	0.88384
1444.49476	0.88330
1442.56619	0.88203
1440.63763	0.87977
1438.70906	0.87647
1436.78050	0.87180
1434.85194	0.86576
1432.92337	0.85968
1430.99481	0.85291
1429.06624	0.84537
1427.13768	0.83954
1425.20911	0.83614
1423.28055	0.83426
1421.35198	0.83287
1419.42342	0.83283
1417.49486	0.83387
1415.56629	0.83298
1413.63773	0.83071
1411.70916	0.82826
1409.78060	0.82637
1407.85203	0.82531
1405.92347	0.82573
1403.99490	0.82785
1402.06634	0.82992
1400.13778	0.83204
1398.20921	0.83503
1396.28065	0.83869
1394.35208	0.84325
1392.42352	0.84813
1390.49495	0.85382
1388.56639	0.86431
1386.63782	0.88154
1384.70926	0.89825
1382.78070	0.91113
1380.85213	0.92049
1378.92357	0.92405
1376.99500	0.92105
1375.06644	0.91158
1373.13787	0.89615
1371.20931	0.87769
1369.28074	0.85595
1367.35218	0.83224
1365.42362	0.80991
1363.49505	0.78649
1361.56649	0.76307
1359.63792	0.74578
1357.70936	0.73325
1355.78079	0.72311
1353.85223	0.71479
1351.92366	0.70750
1349.99510	0.70145
1348.06654	0.69742
1346.13797	0.69517
1344.20941	0.69453
1342.28084	0.69557
1340.35228	0.69907
1338.42371	0.70575
1336.49515	0.71449
1334.56659	0.72520
1332.63802	0.73852
1330.70946	0.75329
1328.78089	0.76705
1326.85233	0.77840
1324.92376	0.78741
1322.99520	0.79488
1321.06663	0.80217
1319.13807	0.81042
1317.20951	0.81876
1315.28094	0.82599
1313.35238	0.83244
1311.42381	0.83740
1309.49525	0.84041
1307.56668	0.84269
1305.63812	0.84439
1303.70955	0.84460
1301.78099	0.84336
1299.85243	0.84107
1297.92386	0.83718
1295.99530	0.83180
1294.06673	0.82658
1292.13817	0.82294
1290.20960	0.82113
1288.28104	0.82039
1286.35247	0.81976
1284.42391	0.81880
1282.49535	0.81801
1280.56678	0.81797
1278.63822	0.81855
1276.70965	0.82015
1274.78109	0.82349
1272.85252	0.82863
1270.92396	0.83539
1268.99539	0.84344
1267.06683	0.85220
1265.13827	0.86017
1263.20970	0.86557
1261.28114	0.86853
1259.35257	0.87061
1257.42401	0.87268
1255.49544	0.87462
1253.56688	0.87615
1251.63831	0.87744
1249.70975	0.87896
1247.78119	0.88066
1245.85262	0.88227
1243.92406	0.88385
1241.99549	0.88497
1240.06693	0.88465
1238.13836	0.88298
1236.20980	0.88016
1234.28123	0.87562
1232.35267	0.86924
1230.42411	0.86151
1228.49554	0.85270
1226.56698	0.84219
1224.63841	0.82990
1222.70985	0.81719
1220.78128	0.80517
1218.85272	0.79376
1216.92415	0.78298
1214.99559	0.77431
1213.06703	0.76914
1211.13846	0.76730
1209.20990	0.76729
1207.28133	0.76644
1205.35277	0.76256
1203.42420	0.75535
1201.49564	0.74589
1199.56708	0.73555
1197.63851	0.72578
1195.70995	0.71822
1193.78138	0.71368
1191.85282	0.71180
1189.92425	0.71221
1187.99569	0.71511
1186.06712	0.72053
1184.13856	0.72826
1182.21000	0.73806
1180.28143	0.74954
1178.35287	0.76268
1176.42430	0.77772
1174.49574	0.79463
1172.56717	0.81240
1170.63861	0.82992
1168.71004	0.84738
1166.78148	0.86514
1164.85292	0.88219
1162.92435	0.89633
1160.99579	0.90546
1159.06722	0.90833
1157.13866	0.90480
1155.21009	0.89570
1153.28153	0.88159
1151.35296	0.86336
1149.42440	0.84229
1147.49584	0.82058
1145.56727	0.80173
1143.63871	0.78792
1141.71014	0.77909
1139.78158	0.77523
1137.85301	0.77675
1135.92445	0.78319
1133.99588	0.79377
1132.06732	0.80775
1130.13876	0.82505
1128.21019	0.84616
1126.28163	0.86914
1124.35306	0.89035
1122.42450	0.90810
1120.49593	0.92199
1118.56737	0.93177
1116.63880	0.93787
1114.71024	0.94106
1112.78168	0.94228
1110.85311	0.94312
1108.92455	0.94456
1106.99598	0.94648
1105.06742	0.94875
1103.13885	0.95088
1101.21029	0.95339
1099.28172	0.95864
1097.35316	0.96705
1095.42460	0.97662
1093.49603	0.98650
1091.56747	0.99725
1089.63890	1.00935
1087.71034	1.02245
1085.78177	1.03432
1083.85321	1.04288
1081.92464	1.04876
1079.99608	1.05334
1078.06752	1.05613
1076.13895	1.05591
1074.21039	1.05185
1072.28182	1.04351
1070.35326	1.03157
1068.42469	1.01758
1066.49613	1.00335
1064.56756	0.99061
1062.63900	0.97931
1060.71044	0.96741
1058.78187	0.95407
1056.85331	0.94143
1054.92474	0.93225
1052.99618	0.92707
1051.06761	0.92516
1049.13905	0.92634
1047.21049	0.93002
1045.28192	0.93571
1043.35336	0.94378
1041.42479	0.95356
1039.49623	0.96309
1037.56766	0.97059
1035.63910	0.97579
1033.71053	0.97958
1031.78197	0.98185
1029.85341	0.98145
1027.92484	0.97822
1025.99628	0.97327
1024.06771	0.96713
1022.13915	0.96038
1020.21058	0.95497
1018.28202	0.95037
1016.35345	0.94294
1014.42489	0.93119
1012.49633	0.91534
1010.56776	0.89555
1008.63920	0.87272
1006.71063	0.84715
1004.78207	0.81944
1002.85350	0.79258
1000.92494	0.76920
998.99637	0.74921
997.06781	0.73162
995.13925	0.71586
993.21068	0.70116
991.28212	0.68676
989.35355	0.67282
987.42499	0.66056
985.49642	0.65136
983.56786	0.64549
981.63929	0.64282
979.71073	0.64344
977.78217	0.64610
975.85360	0.64860
973.92504	0.64953
971.99647	0.64862
970.06791	0.64673
968.13934	0.64504
966.21078	0.64454
964.28221	0.64672
962.35365	0.65373
960.42509	0.66727
958.49652	0.68606
956.56796	0.70441
954.63939	0.71530
952.71083	0.71596
950.78226	0.70862
948.85370	0.69675
946.92513	0.68308
944.99657	0.66989
943.06801	0.65833
941.13944	0.64804
939.21088	0.63847
937.28231	0.62941
935.35375	0.62057
933.42518	0.61217
931.49662	0.60489
929.56805	0.59887
927.63949	0.59416
925.71093	0.59101
923.78236	0.58893
921.85380	0.58680
919.92523	0.58407
917.99667	0.58125
916.06810	0.57907
914.13954	0.57802
912.21098	0.57841
910.28241	0.58059
908.35385	0.58511
906.42528	0.59222
904.49672	0.60109
902.56815	0.61009
900.63959	0.61821
898.71102	0.62503
896.78246	0.63026
894.85390	0.63436
892.92533	0.63821
890.99677	0.64140
889.06820	0.64302
887.13964	0.64348
885.21107	0.64402
883.28251	0.64515
881.35394	0.64624
879.42538	0.64675
877.49682	0.64707
875.56825	0.64724
873.63969	0.64696
871.71112	0.64669
869.78256	0.64683
867.85399	0.64680
865.92543	0.64639
863.99686	0.64646
862.06830	0.64732
860.13974	0.64816
858.21117	0.64869
856.28261	0.64944
854.35404	0.65090
852.42548	0.65293
850.49691	0.65445
848.56835	0.65463
846.63978	0.65401
844.71122	0.65358
842.78266	0.65343
840.85409	0.65274
838.92553	0.65148
836.99696	0.65085
835.06840	0.65123
833.13983	0.65109
831.21127	0.64932
829.28270	0.64708
827.35414	0.64501
825.42558	0.64240
823.49701	0.63974
821.56845	0.63759
819.63988	0.63504
817.71132	0.63196
815.78275	0.62919
813.85419	0.62720
811.92562	0.62614
809.99706	0.62569
808.06850	0.62539
806.13993	0.62511
804.21137	0.62499
802.28280	0.62622
800.35424	0.62980
798.42567	0.63457
796.49711	0.63921
794.56854	0.64480
792.63998	0.65255
790.71142	0.66183
788.78285	0.67175
786.85429	0.68261
784.92572	0.69457
782.99716	0.70686
781.06859	0.71861
779.14003	0.72903
777.21147	0.73809
775.28290	0.74705
773.35434	0.75661
771.42577	0.76602
769.49721	0.77442
767.56864	0.78093
765.64008	0.78478
763.71151	0.78701
761.78295	0.78910
759.85439	0.79034
757.92582	0.78944
755.99726	0.78669
754.06869	0.78285
752.14013	0.77781
750.21156	0.77171
748.28300	0.76433
746.35443	0.75527
744.42587	0.74560
742.49731	0.73606
740.56874	0.72629
738.64018	0.71701
736.71161	0.70968
734.78305	0.70458
732.85448	0.70175
730.92592	0.70164
728.99735	0.70308
727.06879	0.70469
725.14023	0.70738
723.21166	0.71205
721.28310	0.71852
719.35453	0.72618
717.42597	0.73352
715.49740	0.74084
713.56884	0.74970
711.64027	0.75944
709.71171	0.76803
707.78315	0.77489
705.85458	0.78071
703.92602	0.78549
701.99745	0.78794
700.06889	0.78634
698.14032	0.78130
696.21176	0.77625
694.28319	0.77210
692.35463	0.76601
690.42607	0.75585
688.49750	0.74217
686.56894	0.72741
684.64037	0.71353
682.71181	0.69985
680.78324	0.68594
678.85468	0.67275
676.92611	0.66037
674.99755	0.64851
673.06899	0.63810
671.14042	0.62976
669.21186	0.62004
667.28329	0.60901
665.35473	0.60482
663.42616	0.60443
661.49760	0.60496
659.56903	0.60649
657.64047	0.61041
655.71191	0.61765
653.78334	0.62743
651.85478	0.63822
649.92621	0.65019
647.99765	0.66450
646.06908	0.68167
644.14052	0.70249
642.21195	0.72717
640.28339	0.75366
638.35483	0.77776
636.42626	0.79716
634.49770	0.81364
632.56913	0.83000
630.64057	0.84553
628.71200	0.85724
626.78344	0.86627
624.85488	0.87467
622.92631	0.87962
620.99775	0.87678
619.06918	0.86748
617.14062	0.85552
615.21205	0.84077
613.28349	0.82416
611.35492	0.80812
609.42636	0.79181
607.49780	0.77387
605.56923	0.75534
603.64067	0.73773
601.71210	0.72036
599.78354	0.70275
