3997.91406	0.53246
3995.98550	0.53280
3994.05693	0.53345
3992.12837	0.53206
3990.19980	0.52967
3988.27124	0.52849
3986.34268	0.52879
3984.41411	0.53009
3982.48555	0.53089
3980.55698	0.52993
3978.62842	0.52786
3976.69985	0.52658
3974.77129	0.52666
3972.84272	0.52601
3970.91416	0.52411
3968.98560	0.52325
3967.05703	0.52425
3965.12847	0.52571
3963.19990	0.52618
3961.27134	0.52483
3959.34277	0.52252
3957.41421	0.52137
3955.48564	0.52155
3953.55708	0.52168
3951.62852	0.52173
3949.69995	0.52225
3947.77139	0.52206
3945.84282	0.52075
3943.91426	0.52057
3941.98569	0.52160
3940.05713	0.52148
3938.12856	0.52090
3936.20000	0.52067
3934.27144	0.51993
3932.34287	0.51883
3930.41431	0.51861
3928.48574	0.51870
3926.55718	0.51808
3924.62861	0.51715
3922.70005	0.51609
3920.77148	0.51543
3918.84292	0.51648
3916.91436	0.51817
3914.98579	0.51739
3913.05723	0.51463
3911.12866	0.51210
3909.20010	0.50981
3907.27153	0.50729
3905.34297	0.50643
3903.41440	0.50892
3901.48584	0.51203
3899.55728	0.51310
3897.62871	0.51215
3895.70015	0.51068
3893.77158	0.51043
3891.84302	0.51213
3889.91445	0.51235
3887.98589	0.51059
3886.05733	0.51030
3884.12876	0.50978
3882.20020	0.50679
3880.27163	0.50639
3878.34307	0.50847
3876.41450	0.50923
3874.48594	0.50866
3872.55737	0.50700
3870.62881	0.50620
3868.70025	0.50608
3866.77168	0.50469
3864.84312	0.50470
3862.91455	0.50579
3860.98599	0.50381
3859.05742	0.50040
3857.12886	0.49808
3855.20029	0.49962
3853.27173	0.50776
3851.34317	0.50865
3849.41460	0.50361
3847.48604	0.49997
3845.55747	0.49835
3843.62891	0.49783
3841.70034	0.49810
3839.77178	0.49979
3837.84321	0.50164
3835.91465	0.50050
3833.98609	0.49853
3832.05752	0.49772
3830.12896	0.49677
3828.20039	0.49568
3826.27183	0.49548
3824.34326	0.49495
3822.41470	0.49493
3820.48613	0.49525
3818.55757	0.49267
3816.62901	0.49279
3814.70044	0.49560
3812.77188	0.49451
3810.84331	0.49101
3808.91475	0.48909
3806.98618	0.49127
3805.05762	0.49339
3803.12905	0.49411
3801.20049	0.49626
3799.27193	0.49588
3797.34336	0.49442
3795.41480	0.49372
3793.48623	0.49192
3791.55767	0.49040
3789.62910	0.48946
3787.70054	0.48738
3785.77197	0.48549
3783.84341	0.48496
3781.91485	0.48456
3779.98628	0.48526
3778.05772	0.48722
3776.12915	0.48818
3774.20059	0.48719
3772.27202	0.48491
3770.34346	0.48391
3768.41489	0.48465
3766.48633	0.48510
3764.55777	0.48440
3762.62920	0.48224
3760.70064	0.48150
3758.77207	0.48414
3756.84351	0.48528
3754.91494	0.48330
3752.98638	0.48161
3751.05781	0.48429
3749.12925	0.48740
3747.20069	0.48716
3745.27212	0.48761
3743.34356	0.48771
3741.41499	0.48558
3739.48643	0.48382
3737.55786	0.48462
3735.62930	0.48731
3733.70074	0.48679
3731.77217	0.48305
3729.84361	0.47889
3727.91504	0.47663
3725.98648	0.47763
3724.05791	0.47923
3722.12935	0.47935
3720.20078	0.47897
3718.27222	0.47784
3716.34366	0.47537
3714.41509	0.47237
3712.48653	0.47251
3710.55796	0.47699
3708.62940	0.47868
3706.70083	0.47794
3704.77227	0.47716
3702.84370	0.47843
3700.91514	0.48149
3698.98658	0.48152
3697.05801	0.47948
3695.12945	0.47877
3693.20088	0.48003
3691.27232	0.48410
3689.34375	0.49054
3687.41519	0.49226
3685.48662	0.49055
3683.55806	0.48966
3681.62950	0.49043
3679.70093	0.49193
3677.77237	0.49443
3675.84380	0.50180
3673.91524	0.50629
3671.98667	0.50481
3670.05811	0.50859
3668.12954	0.51504
3666.20098	0.51712
3664.27242	0.51949
3662.34385	0.52370
3660.41529	0.52724
3658.48672	0.53023
3656.55816	0.53693
3654.62959	0.54410
3652.70103	0.54673
3650.77246	0.55049
3648.84390	0.56497
3646.91534	0.57678
3644.98677	0.57861
3643.05821	0.57910
3641.12964	0.58334
3639.20108	0.59090
3637.27251	0.59866
3635.34395	0.60506
3633.41538	0.60998
3631.48682	0.61448
3629.55826	0.62528
3627.62969	0.64087
3625.70113	0.64833
3623.77256	0.65310
3621.84400	0.65959
3619.91543	0.66956
3617.98687	0.67858
3616.05830	0.68236
3614.12974	0.68766
3612.20118	0.69676
3610.27261	0.70536
3608.34405	0.71339
3606.41548	0.72041
3604.48692	0.72658
3602.55835	0.73541
3600.62979	0.74685
3598.70123	0.75701
3596.77266	0.76651
3594.84410	0.77754
3592.91553	0.78530
3590.98697	0.78765
3589.05840	0.79307
3587.12984	0.80744
3585.20127	0.81906
3583.27271	0.82502
3581.34415	0.83228
3579.41558	0.84232
3577.48702	0.85238
3575.55845	0.86166
3573.62989	0.86963
3571.70132	0.87536
3569.77276	0.88152
3567.84419	0.89507
3565.91563	0.91203
3563.98707	0.91804
3562.05850	0.92026
3560.12994	0.92667
3558.20137	0.93623
3556.27281	0.94509
3554.34424	0.95353
3552.41568	0.96308
3550.48711	0.97078
3548.55855	0.97703
3546.62999	0.98570
3544.70142	0.99673
3542.77286	1.00934
3540.84429	1.02176
3538.91573	1.03106
3536.98716	1.03768
3535.05860	1.04239
3533.13003	1.04687
3531.20147	1.05576
3529.27291	1.06879
3527.34434	1.08008
3525.41578	1.08931
3523.48721	1.10011
3521.55865	1.11072
3519.63008	1.11857
3517.70152	1.12484
3515.77295	1.13094
3513.84439	1.13950
3511.91583	1.15268
3509.98726	1.16890
3508.05870	1.18148
3506.13013	1.18613
3504.20157	1.18957
3502.27300	1.19773
3500.34444	1.20724
3498.41587	1.21642
3496.48731	1.22684
3494.55875	1.23762
3492.63018	1.24776
3490.70162	1.25779
3488.77305	1.26404
3486.84449	1.26475
3484.91592	1.26575
3482.98736	1.26976
3481.05879	1.27425
3479.13023	1.27824
3477.20167	1.28375
3475.27310	1.29082
3473.34454	1.29663
3471.41597	1.30210
3469.48741	1.31087
3467.55884	1.32024
3465.63028	1.32756
3463.70171	1.33472
3461.77315	1.33678
3459.84459	1.33335
3457.91602	1.33432
3455.98746	1.33778
3454.05889	1.33773
3452.13033	1.34203
3450.20176	1.35277
3448.27320	1.35880
3446.34464	1.35881
3444.41607	1.35950
3442.48751	1.35840
3440.55894	1.35607
3438.63038	1.36310
3436.70181	1.37789
3434.77325	1.38564
3432.84468	1.38472
3430.91612	1.38263
3428.98756	1.38254
3427.05899	1.38305
3425.13043	1.38058
3423.20186	1.37591
3421.27330	1.37160
3419.34473	1.37242
3417.41617	1.38045
3415.48760	1.38959
3413.55904	1.39519
3411.63048	1.39667
3409.70191	1.39573
3407.77335	1.39822
3405.84478	1.40360
3403.91622	1.40195
3401.98765	1.39722
3400.05909	1.40065
3398.13052	1.40636
3396.20196	1.40836
3394.27340	1.41131
3392.34483	1.41390
3390.41627	1.41268
3388.48770	1.41186
3386.55914	1.41185
3384.63057	1.41010
3382.70201	1.41448
3380.77344	1.42788
3378.84488	1.43765
3376.91632	1.43664
3374.98775	1.43358
3373.05919	1.43878
3371.13062	1.44736
3369.20206	1.44803
3367.27349	1.44553
3365.34493	1.44548
3363.41636	1.44304
3361.48780	1.44247
3359.55924	1.44793
3357.63067	1.44832
3355.70211	1.44076
3353.77354	1.43789
3351.84498	1.44176
3349.91641	1.44551
3347.98785	1.44669
3346.05928	1.44400
3344.13072	1.44175
3342.20216	1.44205
3340.27359	1.43984
3338.34503	1.44240
3336.41646	1.45465
3334.48790	1.46398
3332.55933	1.46403
3330.63077	1.45936
3328.70220	1.45574
3326.77364	1.45622
3324.84508	1.46297
3322.91651	1.47745
3320.98795	1.48681
3319.05938	1.48225
3317.13082	1.47651
3315.20225	1.47856
3313.27369	1.48479
3311.34513	1.48832
3309.41656	1.49034
3307.48800	1.49666
3305.55943	1.50269
3303.63087	1.50494
3301.70230	1.50475
3299.77374	1.49903
3297.84517	1.49206
3295.91661	1.49272
3293.98805	1.49969
3292.05948	1.50267
3290.13092	1.49174
3288.20235	1.47253
3286.27379	1.45978
3284.34522	1.45704
3282.41666	1.45877
3280.48809	1.46440
3278.55953	1.47367
3276.63097	1.47370
3274.70240	1.46144
3272.77384	1.45651
3270.84527	1.46495
3268.91671	1.47136
3266.98814	1.46771
3265.05958	1.45980
3263.13101	1.45185
3261.20245	1.44589
3259.27389	1.44339
3257.34532	1.44096
3255.41676	1.43744
3253.48819	1.43364
3251.55963	1.42598
3249.63106	1.41904
3247.70250	1.42197
3245.77393	1.42733
3243.84537	1.42256
3241.91681	1.41156
3239.98824	1.40298
3238.05968	1.39882
3236.13111	1.39586
3234.20255	1.38917
3232.27398	1.37590
3230.34542	1.36084
3228.41685	1.35490
3226.48829	1.35996
3224.55973	1.36654
3222.63116	1.36800
3220.70260	1.36573
3218.77403	1.36521
3216.84547	1.36901
3214.91690	1.37102
3212.98834	1.36572
3211.05977	1.35747
3209.13121	1.35379
3207.20265	1.35603
3205.27408	1.35522
3203.34552	1.34513
3201.41695	1.33501
3199.48839	1.33496
3197.55982	1.34117
3195.63126	1.34271
3193.70269	1.33944
3191.77413	1.33860
3189.84557	1.33903
3187.91700	1.33504
3185.98844	1.32493
3184.05987	1.31122
3182.13131	1.29901
3180.20274	1.29268
3178.27418	1.29265
3176.34562	1.29440
3174.41705	1.29318
3172.48849	1.28735
3170.55992	1.27871
3168.63136	1.27402
3166.70279	1.27559
3164.77423	1.27469
3162.84566	1.26691
3160.91710	1.25971
3158.98854	1.25643
3157.05997	1.25271
3155.13141	1.24854
3153.20284	1.24675
3151.27428	1.24594
3149.34571	1.24379
3147.41715	1.24017
3145.48858	1.23656
3143.56002	1.23515
3141.63146	1.23627
3139.70289	1.23644
3137.77433	1.23367
3135.84576	1.23084
3133.91720	1.22740
3131.98863	1.22258
3130.06007	1.22154
3128.13150	1.22324
3126.20294	1.22151
3124.27438	1.21826
3122.34581	1.21861
3120.41725	1.22074
3118.48868	1.21969
3116.56012	1.21699
3114.63155	1.21737
3112.70299	1.21856
3110.77442	1.21656
3108.84586	1.21337
3106.91730	1.21223
3104.98873	1.21483
3103.06017	1.21909
3101.13160	1.22002
3099.20304	1.21851
3097.27447	1.21620
3095.34591	1.21195
3093.41734	1.21080
3091.48878	1.21472
3089.56022	1.21605
3087.63165	1.21201
3085.70309	1.20879
3083.77452	1.20967
3081.84596	1.21167
3079.91739	1.21174
3077.98883	1.20926
3076.06026	1.20411
3074.13170	1.19624
3072.20314	1.18829
3070.27457	1.18422
3068.34601	1.18340
3066.41744	1.18260
3064.48888	1.18135
3062.56031	1.17975
3060.63175	1.17737
3058.70318	1.17333
3056.77462	1.16668
3054.84606	1.15954
3052.91749	1.15447
3050.98893	1.15157
3049.06036	1.14959
3047.13180	1.14551
3045.20323	1.13869
3043.27467	1.13182
3041.34610	1.12656
3039.41754	1.12349
3037.48898	1.12171
3035.56041	1.12013
3033.63185	1.11860
3031.70328	1.11515
3029.77472	1.10891
3027.84615	1.10271
3025.91759	1.09948
3023.98903	1.09836
3022.06046	1.09582
3020.13190	1.09144
3018.20333	1.08785
3016.27477	1.08568
3014.34620	1.08303
3012.41764	1.07908
3010.48907	1.07556
3008.56051	1.07442
3006.63195	1.07508
3004.70338	1.07342
3002.77482	1.06827
3000.84625	1.06506
2998.91769	1.06612
2996.98912	1.06815
2995.06056	1.06979
2993.13199	1.07170
2991.20343	1.07419
2989.27487	1.07836
2987.34630	1.08488
2985.41774	1.09358
2983.48917	1.10401
2981.56061	1.11364
2979.63204	1.11908
2977.70348	1.12201
2975.77491	1.12735
2973.84635	1.13603
2971.91779	1.14669
2969.98922	1.15807
2968.06066	1.16841
2966.13209	1.17661
2964.20353	1.18108
2962.27496	1.18157
2960.34640	1.18097
2958.41783	1.18160
2956.48927	1.18197
2954.56071	1.17843
2952.63214	1.17182
2950.70358	1.16746
2948.77501	1.16735
2946.84645	1.16854
2944.91788	1.17008
2942.98932	1.17495
2941.06075	1.18272
2939.13219	1.19132
2937.20363	1.20258
2935.27506	1.21627
2933.34650	1.22694
2931.41793	1.23191
2929.48937	1.23483
2927.56080	1.23905
2925.63224	1.24421
2923.70367	1.24784
2921.77511	1.24898
2919.84655	1.24920
2917.91798	1.24515
2915.98942	1.23087
2914.06085	1.20934
2912.13229	1.18783
2910.20372	1.16899
2908.27516	1.15228
2906.34659	1.13745
2904.41803	1.12561
2902.48947	1.11778
2900.56090	1.11217
2898.63234	1.10592
2896.70377	1.09981
2894.77521	1.09625
2892.84664	1.09403
2890.91808	1.09043
2888.98952	1.08594
2887.06095	1.08249
2885.13239	1.08055
2883.20382	1.08056
2881.27526	1.08246
2879.34669	1.08474
2877.41813	1.08704
2875.48956	1.08810
2873.56100	1.08482
2871.63244	1.07835
2869.70387	1.07151
2867.77531	1.06455
2865.84674	1.05825
2863.91818	1.05340
2861.98961	1.05003
2860.06105	1.04882
2858.13248	1.05047
2856.20392	1.05504
2854.27536	1.06300
2852.34679	1.07302
2850.41823	1.07550
2848.48966	1.05995
2846.56110	1.03060
2844.63253	1.00041
2842.70397	0.97708
2840.77540	0.96093
2838.84684	0.94869
2836.91828	0.93799
2834.98971	0.92856
2833.06115	0.92022
2831.13258	0.91309
2829.20402	0.90756
2827.27545	0.90212
2825.34689	0.89620
2823.41832	0.89228
2821.48976	0.89023
2819.56120	0.88740
2817.63263	0.88276
2815.70407	0.87677
2813.77550	0.87136
2811.84694	0.86710
2809.91837	0.86257
2807.98981	0.85829
2806.06124	0.85478
2804.13268	0.85080
2802.20412	0.84550
2800.27555	0.83988
2798.34699	0.83593
2796.41842	0.83304
2794.48986	0.82926
2792.56129	0.82557
2790.63273	0.82292
2788.70416	0.81942
2786.77560	0.81440
2784.84704	0.80915
2782.91847	0.80472
2780.98991	0.80201
2779.06134	0.80059
2777.13278	0.79906
2775.20421	0.79679
2773.27565	0.79364
2771.34708	0.78992
2769.41852	0.78623
2767.48996	0.78287
2765.56139	0.77947
2763.63283	0.77622
2761.70426	0.77457
2759.77570	0.77445
2757.84713	0.77370
2755.91857	0.77160
2753.99001	0.76877
2752.06144	0.76533
2750.13288	0.76204
2748.20431	0.75972
2746.27575	0.75809
2744.34718	0.75665
2742.41862	0.75485
2740.49005	0.75214
2738.56149	0.74887
2736.63293	0.74625
2734.70436	0.74463
2732.77580	0.74317
2730.84723	0.74170
2728.91867	0.74027
2726.99010	0.73780
2725.06154	0.73425
2723.13297	0.73081
2721.20441	0.72781
2719.27585	0.72551
2717.34728	0.72386
2715.41872	0.72191
2713.49015	0.71949
2711.56159	0.71700
2709.63302	0.71472
2707.70446	0.71255
2705.77589	0.71043
2703.84733	0.70901
2701.91877	0.70815
2699.99020	0.70655
2698.06164	0.70392
2696.13307	0.70162
2694.20451	0.70035
2692.27594	0.69949
2690.34738	0.69843
2688.41881	0.69700
2686.49025	0.69586
2684.56169	0.69504
2682.63312	0.69373
2680.70456	0.69241
2678.77599	0.69141
2676.84743	0.69009
2674.91886	0.68862
2672.99030	0.68707
2671.06173	0.68473
2669.13317	0.68214
2667.20461	0.68010
2665.27604	0.67807
2663.34748	0.67629
2661.41891	0.67501
2659.49035	0.67304
2657.56178	0.67020
2655.63322	0.66766
2653.70465	0.66571
2651.77609	0.66381
2649.84753	0.66164
2647.91896	0.65932
2645.99040	0.65765
2644.06183	0.65702
2642.13327	0.65607
2640.20470	0.65400
2638.27614	0.65211
2636.34757	0.65086
2634.41901	0.64944
2632.49045	0.64819
2630.56188	0.64729
2628.63332	0.64615
2626.70475	0.64499
2624.77619	0.64369
2622.84762	0.64199
2620.91906	0.64061
2618.99049	0.63965
2617.06193	0.63843
2615.13337	0.63698
2613.20480	0.63560
2611.27624	0.63413
2609.34767	0.63233
2607.41911	0.63015
2605.49054	0.62786
2603.56198	0.62590
2601.63342	0.62417
2599.70485	0.62211
2597.77629	0.61984
2595.84772	0.61804
2593.91916	0.61656
2591.99059	0.61462
2590.06203	0.61249
2588.13346	0.61077
2586.20490	0.60924
2584.27634	0.60754
2582.34777	0.60570
2580.41921	0.60407
2578.49064	0.60298
2576.56208	0.60198
2574.63351	0.60061
2572.70495	0.59929
2570.77638	0.59815
2568.84782	0.59686
2566.91926	0.59555
2564.99069	0.59428
2563.06213	0.59297
2561.13356	0.59154
2559.20500	0.58985
2557.27643	0.58806
2555.34787	0.58642
2553.41930	0.58484
2551.49074	0.58319
2549.56218	0.58150
2547.63361	0.57967
2545.70505	0.57764
2543.77648	0.57603
2541.84792	0.57510
2539.91935	0.57427
2537.99079	0.57364
2536.06222	0.57324
2534.13366	0.57227
2532.20510	0.57063
2530.27653	0.56898
2528.34797	0.56796
2526.41940	0.56757
2524.49084	0.56693
2522.56227	0.56573
2520.63371	0.56457
2518.70514	0.56369
2516.77658	0.56273
2514.84802	0.56156
2512.91945	0.56051
2510.99089	0.55959
2509.06232	0.55866
2507.13376	0.55787
2505.20519	0.55728
2503.27663	0.55701
2501.34806	0.55655
2499.41950	0.55519
2497.49094	0.55351
2495.56237	0.55203
2493.63381	0.55046
2491.70524	0.54896
2489.77668	0.54780
2487.84811	0.54688
2485.91955	0.54603
2483.99098	0.54493
2482.06242	0.54352
2480.13386	0.54217
2478.20529	0.54069
2476.27673	0.53885
2474.34816	0.53724
2472.41960	0.53619
2470.49103	0.53520
2468.56247	0.53404
2466.63391	0.53280
2464.70534	0.53147
2462.77678	0.52986
2460.84821	0.52801
2458.91965	0.52645
2456.99108	0.52556
2455.06252	0.52487
2453.13395	0.52361
2451.20539	0.52211
2449.27683	0.52106
2447.34826	0.52002
2445.41970	0.51867
2443.49113	0.51749
2441.56257	0.51626
2439.63400	0.51458
2437.70544	0.51269
2435.77687	0.51101
2433.84831	0.50980
2431.91975	0.50877
2429.99118	0.50732
2428.06262	0.50563
2426.13405	0.50436
2424.20549	0.50336
2422.27692	0.50210
2420.34836	0.50070
2418.41979	0.49958
2416.49123	0.49885
2414.56267	0.49818
2412.63410	0.49710
2410.70554	0.49579
2408.77697	0.49454
2406.84841	0.49306
2404.91984	0.49144
2402.99128	0.49006
2401.06271	0.48903
2399.13415	0.48822
2397.20559	0.48703
2395.27702	0.48529
2393.34846	0.48368
2391.41989	0.48244
2389.49133	0.48122
2387.56276	0.47957
2385.63420	0.47741
2383.70563	0.47514
2381.77707	0.47297
2379.84851	0.47062
2377.91994	0.46815
2375.99138	0.46612
2374.06281	0.46408
2372.13425	0.46040
2370.20568	0.45561
2368.27712	0.45294
2366.34855	0.45371
2364.41999	0.45510
2362.49143	0.45416
2360.56286	0.45443
2358.63430	0.45845
2356.70573	0.46080
2354.77717	0.45997
2352.84860	0.45977
2350.92004	0.46059
2348.99147	0.46054
2347.06291	0.45899
2345.13435	0.45773
2343.20578	0.45963
2341.27722	0.46172
2339.34865	0.46122
2337.42009	0.46058
2335.49152	0.46045
2333.56296	0.45861
2331.63440	0.45507
2329.70583	0.45330
2327.77727	0.45414
2325.84870	0.45500
2323.92014	0.45597
2321.99157	0.45830
2320.06301	0.46011
2318.13444	0.46027
2316.20588	0.46041
2314.27732	0.46092
2312.34875	0.46110
2310.42019	0.46157
2308.49162	0.46292
2306.56306	0.46434
2304.63449	0.46533
2302.70593	0.46629
2300.77736	0.46720
2298.84880	0.46765
2296.92024	0.46807
2294.99167	0.46892
2293.06311	0.46981
2291.13454	0.47027
2289.20598	0.47043
2287.27741	0.47063
2285.34885	0.47080
2283.42028	0.47054
2281.49172	0.46980
2279.56316	0.46905
2277.63459	0.46849
2275.70603	0.46789
2273.77746	0.46724
2271.84890	0.46685
2269.92033	0.46660
2267.99177	0.46625
2266.06320	0.46616
2264.13464	0.46647
2262.20608	0.46666
2260.27751	0.46640
2258.34895	0.46594
2256.42038	0.46569
2254.49182	0.46566
2252.56325	0.46573
2250.63469	0.46598
2248.70612	0.46636
2246.77756	0.46666
2244.84900	0.46665
2242.92043	0.46654
2240.99187	0.46660
2239.06330	0.46662
2237.13474	0.46656
2235.20617	0.46634
2233.27761	0.46579
2231.34904	0.46506
2229.42048	0.46435
2227.49192	0.46359
2225.56335	0.46280
2223.63479	0.46211
2221.70622	0.46122
2219.77766	0.46004
2217.84909	0.45911
2215.92053	0.45839
2213.99196	0.45740
2212.06340	0.45613
2210.13484	0.45496
2208.20627	0.45399
2206.27771	0.45306
2204.34914	0.45215
2202.42058	0.45131
2200.49201	0.45031
2198.56345	0.44911
2196.63488	0.44806
2194.70632	0.44727
2192.77776	0.44649
2190.84919	0.44564
2188.92063	0.44466
2186.99206	0.44345
2185.06350	0.44202
2183.13493	0.44050
2181.20637	0.43893
2179.27781	0.43715
2177.34924	0.43529
2175.42068	0.43370
2173.49211	0.43237
2171.56355	0.43126
2169.63498	0.43026
2167.70642	0.42913
2165.77785	0.42791
2163.84929	0.42679
2161.92073	0.42585
2159.99216	0.42495
2158.06360	0.42392
2156.13503	0.42275
2154.20647	0.42145
2152.27790	0.42021
2150.34934	0.41934
2148.42077	0.41878
2146.49221	0.41821
2144.56365	0.41763
2142.63508	0.41721
2140.70652	0.41681
2138.77795	0.41618
2136.84939	0.41558
2134.92082	0.41520
2132.99226	0.41462
2131.06369	0.41368
2129.13513	0.41259
2127.20657	0.41144
2125.27800	0.41015
2123.34944	0.40872
2121.42087	0.40732
2119.49231	0.40609
2117.56374	0.40505
2115.63518	0.40411
2113.70661	0.40292
2111.77805	0.40135
2109.84949	0.39990
2107.92092	0.39905
2105.99236	0.39866
2104.06379	0.39830
2102.13523	0.39770
2100.20666	0.39696
2098.27810	0.39641
2096.34953	0.39621
2094.42097	0.39643
2092.49241	0.39687
2090.56384	0.39728
2088.63528	0.39762
2086.70671	0.39800
2084.77815	0.39853
2082.84958	0.39887
2080.92102	0.39878
2078.99245	0.39856
2077.06389	0.39836
2075.13533	0.39803
2073.20676	0.39748
2071.27820	0.39674
2069.34963	0.39581
2067.42107	0.39472
2065.49250	0.39369
2063.56394	0.39256
2061.63537	0.39097
2059.70681	0.38932
2057.77825	0.38802
2055.84968	0.38690
2053.92112	0.38583
2051.99255	0.38507
2050.06399	0.38459
2048.13542	0.38396
2046.20686	0.38318
2044.27830	0.38269
2042.34973	0.38278
2040.42117	0.38316
2038.49260	0.38334
2036.56404	0.38325
2034.63547	0.38303
2032.70691	0.38278
2030.77834	0.38262
2028.84978	0.38251
2026.92122	0.38223
2024.99265	0.38160
2023.06409	0.38075
2021.13552	0.37977
2019.20696	0.37862
2017.27839	0.37721
2015.34983	0.37548
2013.42126	0.37380
2011.49270	0.37232
2009.56414	0.37060
2007.63557	0.36855
2005.70701	0.36646
2003.77844	0.36432
2001.84988	0.36206
1999.92131	0.35989
1997.99275	0.35777
1996.06418	0.35552
1994.13562	0.35344
1992.20706	0.35187
1990.27849	0.35064
1988.34993	0.34929
1986.42136	0.34785
1984.49280	0.34671
1982.56423	0.34599
1980.63567	0.34528
1978.70710	0.34444
1976.77854	0.34376
1974.84998	0.34313
1972.92141	0.34231
1970.99285	0.34133
1969.06428	0.34046
1967.13572	0.33978
1965.20715	0.33886
1963.27859	0.33757
1961.35002	0.33615
1959.42146	0.33476
1957.49290	0.33338
1955.56433	0.33177
1953.63577	0.32981
1951.70720	0.32780
1949.77864	0.32594
1947.85007	0.32411
1945.92151	0.32226
1943.99294	0.32054
1942.06438	0.31907
1940.13582	0.31758
1938.20725	0.31598
1936.27869	0.31436
1934.35012	0.31272
1932.42156	0.31124
1930.49299	0.31002
1928.56443	0.30907
1926.63586	0.30813
1924.70730	0.30715
1922.77874	0.30640
1920.85017	0.30563
1918.92161	0.30488
1916.99304	0.30435
1915.06448	0.30356
1913.13591	0.30263
1911.20735	0.30198
1909.27878	0.30134
1907.35022	0.30023
1905.42166	0.29893
1903.49309	0.29796
1901.56453	0.29723
1899.63596	0.29628
1897.70740	0.29512
1895.77883	0.29427
1893.85027	0.29352
1891.92171	0.29235
1889.99314	0.29133
1888.06458	0.29068
1886.13601	0.28981
1884.20745	0.28887
1882.27888	0.28827
1880.35032	0.28795
1878.42175	0.28778
1876.49319	0.28771
1874.56463	0.28772
1872.63606	0.28774
1870.70750	0.28816
1868.77893	0.28992
1866.85037	0.29201
1864.92180	0.29304
1862.99324	0.29375
1861.06467	0.29469
1859.13611	0.29583
1857.20755	0.29701
1855.27898	0.29808
1853.35042	0.29903
1851.42185	0.29991
1849.49329	0.30081
1847.56472	0.30171
1845.63616	0.30307
1843.70759	0.30520
1841.77903	0.30637
1839.85047	0.30652
1837.92190	0.30702
1835.99334	0.30801
1834.06477	0.30857
1832.13621	0.30896
1830.20764	0.31062
1828.27908	0.31275
1826.35051	0.31411
1824.42195	0.31586
1822.49339	0.31760
1820.56482	0.31899
1818.63626	0.32093
1816.70769	0.32340
1814.77913	0.32579
1812.85056	0.32834
1810.92200	0.33182
1808.99343	0.33562
1807.06487	0.33870
1805.13631	0.34119
1803.20774	0.34374
1801.27918	0.34728
1799.35061	0.35133
1797.42205	0.35434
1795.49348	0.35639
1793.56492	0.35915
1791.63635	0.36349
1789.70779	0.36640
1787.77923	0.36753
1785.85066	0.36868
1783.92210	0.37024
1781.99353	0.37217
1780.06497	0.37469
1778.13640	0.37677
1776.20784	0.37782
1774.27927	0.37946
1772.35071	0.38372
1770.42215	0.38820
1768.49358	0.39104
1766.56502	0.39335
1764.63645	0.39532
1762.70789	0.39878
1760.77932	0.40402
1758.85076	0.40824
1756.92220	0.41233
1754.99363	0.41619
1753.06507	0.41957
1751.13650	0.42533
1749.20794	0.43381
1747.27937	0.44063
1745.35081	0.44584
1743.42224	0.45100
1741.49368	0.45644
1739.56512	0.46225
1737.63655	0.46649
1735.70799	0.47019
1733.77942	0.47843
1731.85086	0.48694
1729.92229	0.49252
1727.99373	0.49803
1726.06516	0.50393
1724.13660	0.51179
1722.20804	0.52033
1720.27947	0.52776
1718.35091	0.53945
1716.42234	0.56146
1714.49378	0.58098
1712.56521	0.59566
1710.63665	0.61099
1708.70808	0.62927
1706.77952	0.65671
1704.85096	0.69391
1702.92239	0.72777
1700.99383	0.77431
1699.06526	0.85112
1697.13670	0.92596
1695.20813	0.99874
1693.27957	1.05132
1691.35100	1.08964
1689.42244	1.13346
1687.49388	1.17282
1685.56531	1.21114
1683.63675	1.26474
1681.70818	1.29758
1679.77962	1.31173
1677.85105	1.32225
1675.92249	1.33515
1673.99392	1.35103
1672.06536	1.36368
1670.13680	1.37401
1668.20823	1.38085
1666.27967	1.37884
1664.35110	1.37486
1662.42254	1.37430
1660.49397	1.37460
1658.56541	1.37374
1656.63684	1.37344
1654.70828	1.37531
1652.77972	1.36607
1650.85115	1.35111
1648.92259	1.34146
1646.99402	1.33345
1645.06546	1.33148
1643.13689	1.32849
1641.20833	1.32287
1639.27976	1.31660
1637.35120	1.30848
1635.42264	1.29611
1633.49407	1.28875
1631.56551	1.28536
1629.63694	1.27931
1627.70838	1.27073
1625.77981	1.26335
1623.85125	1.25752
1621.92269	1.25067
1619.99412	1.24197
1618.06556	1.23047
1616.13699	1.21589
1614.20843	1.20324
1612.27986	1.19041
1610.35130	1.17551
1608.42273	1.15997
1606.49417	1.14658
1604.56561	1.13630
1602.63704	1.12767
1600.70848	1.12078
1598.77991	1.11622
1596.85135	1.11401
1594.92278	1.11391
1592.99422	1.11551
1591.06565	1.11886
1589.13709	1.12417
1587.20853	1.13116
1585.27996	1.13906
1583.35140	1.14807
1581.42283	1.15750
1579.49427	1.16580
1577.56570	1.17628
1575.63714	1.19118
1573.70857	1.20007
1571.78001	1.20537
1569.85145	1.21372
1567.92288	1.22169
1565.99432	1.22747
1564.06575	1.23344
1562.13719	1.23719
1560.20862	1.24188
1558.28006	1.25640
1556.35149	1.26360
1554.42293	1.26338
1552.49437	1.26099
1550.56580	1.25990
1548.63724	1.26083
1546.70867	1.26067
1544.78011	1.25788
1542.85154	1.25518
1540.92298	1.25432
1538.99441	1.24642
1537.06585	1.23813
1535.13729	1.22920
1533.20872	1.21676
1531.28016	1.20722
1529.35159	1.20174
1527.42303	1.19476
1525.49446	1.18574
1523.56590	1.17866
1521.63733	1.17156
1519.70877	1.16380
1517.78021	1.15409
1515.85164	1.14073
1513.92308	1.12805
1511.99451	1.11707
1510.06595	1.10728
1508.13738	1.09247
1506.20882	1.06253
1504.28025	1.04346
1502.35169	1.03130
1500.42313	1.01819
1498.49456	1.00095
1496.56600	0.97907
1494.63743	0.96132
1492.70887	0.94854
1490.78030	0.93306
1488.85174	0.91308
1486.92317	0.89928
1484.99461	0.89229
1483.06605	0.88871
1481.13748	0.88766
1479.20892	0.88942
1477.28035	0.89504
1475.35179	0.90597
1473.42322	0.92464
1471.49466	0.94436
1469.56610	0.95424
1467.63753	0.95988
1465.70897	0.96727
1463.78040	0.97609
1461.85184	0.98147
1459.92327	0.98489
1457.99471	0.99267
1456.06614	1.00289
1454.13758	1.00514
1452.20902	1.00445
1450.28045	1.00322
1448.35189	1.00143
1446.42332	0.99854
1444.49476	0.99492
1442.56619	0.99143
1440.63763	0.98815
1438.70906	0.98431
1436.78050	0.97923
1434.85194	0.97369
1432.92337	0.96836
1430.99481	0.96341
1429.06624	0.96037
1427.13768	0.95953
1425.20911	0.96043
1423.28055	0.96309
1421.35198	0.96590
1419.42342	0.96988
1417.49486	0.97563
1415.56629	0.97867
1413.63773	0.97971
1411.70916	0.98063
1409.78060	0.98150
1407.85203	0.98242
1405.92347	0.98457
1403.99490	0.98784
1402.06634	0.99025
1400.13778	0.99174
1398.20921	0.99296
1396.28065	0.99440
1394.35208	0.99597
1392.42352	0.99690
1390.49495	0.99809
1388.56639	1.00206
1386.63782	1.00999
1384.70926	1.01844
1382.78070	1.02515
1380.85213	1.02934
1378.92357	1.02995
1376.99500	1.02715
1375.06644	1.02116
1373.13787	1.01266
1371.20931	1.00299
1369.28074	0.99089
1367.35218	0.97673
1365.42362	0.96339
1363.49505	0.95080
1361.56649	0.94031
1359.63792	0.93387
1357.70936	0.92992
1355.78079	0.92751
1353.85223	0.92628
1351.92366	0.92572
1349.99510	0.92555
1348.06654	0.92543
1346.13797	0.92527
1344.20941	0.92541
1342.28084	0.92608
1340.35228	0.92784
1338.42371	0.93105
1336.49515	0.93481
1334.56659	0.93947
1332.63802	0.94544
1330.70946	0.95177
1328.78089	0.95755
1326.85233	0.96256
1324.92376	0.96644
1322.99520	0.96916
1321.06663	0.97203
1319.13807	0.97624
1317.20951	0.98080
1315.28094	0.98413
1313.35238	0.98658
1311.42381	0.98889
1309.49525	0.99072
1307.56668	0.99175
1305.63812	0.99179
1303.70955	0.99097
1301.78099	0.99007
1299.85243	0.98863
1297.92386	0.98555
1295.99530	0.98124
1294.06673	0.97678
1292.13817	0.97276
1290.20960	0.97002
1288.28104	0.96859
1286.35247	0.96684
1284.42391	0.96425
1282.49535	0.96209
1280.56678	0.96099
1278.63822	0.96021
1276.70965	0.95936
1274.78109	0.95909
1272.85252	0.96003
1270.92396	0.96257
1268.99539	0.96630
1267.06683	0.97052
1265.13827	0.97471
1263.20970	0.97726
1261.28114	0.97788
1259.35257	0.97845
1257.42401	0.97946
1255.49544	0.98038
1253.56688	0.98127
1251.63831	0.98296
1249.70975	0.98595
1247.78119	0.98860
1245.85262	0.98959
1243.92406	0.99019
1241.99549	0.99094
1240.06693	0.99095
1238.13836	0.98991
1236.20980	0.98777
1234.28123	0.98448
1232.35267	0.98006
1230.42411	0.97439
1228.49554	0.96757
1226.56698	0.95919
1224.63841	0.94902
1222.70985	0.93812
1220.78128	0.92773
1218.85272	0.91827
1216.92415	0.90973
1214.99559	0.90279
1213.06703	0.89898
1211.13846	0.89848
1209.20990	0.89927
1207.28133	0.89879
1205.35277	0.89570
1203.42420	0.89011
1201.49564	0.88313
1199.56708	0.87568
1197.63851	0.86778
1195.70995	0.85943
1193.78138	0.85122
1191.85282	0.84438
1189.92425	0.83991
1187.99569	0.83719
1186.06712	0.83520
1184.13856	0.83436
1182.21000	0.83500
1180.28143	0.83703
1178.35287	0.84098
1176.42430	0.84746
1174.49574	0.85609
1172.56717	0.86538
1170.63861	0.87475
1168.71004	0.88524
1166.78148	0.89734
1164.85292	0.91025
1162.92435	0.92231
1160.99579	0.93135
1159.06722	0.93576
1157.13866	0.93581
1155.21009	0.93189
1153.28153	0.92358
1151.35296	0.91227
1149.42440	0.90023
1147.49584	0.88833
1145.56727	0.87810
1143.63871	0.87219
1141.71014	0.87176
1139.78158	0.87597
1137.85301	0.88364
1135.92445	0.89426
1133.99588	0.90767
1132.06732	0.92380
1130.13876	0.94286
1128.21019	0.96419
1126.28163	0.98484
1124.35306	1.00192
1122.42450	1.01558
1120.49593	1.02707
1118.56737	1.03564
1116.63880	1.04088
1114.71024	1.04326
1112.78168	1.04099
1110.85311	1.03388
1108.92455	1.02549
1106.99598	1.01798
1105.06742	1.01146
1103.13885	1.00554
1101.21029	1.00024
1099.28172	0.99680
1097.35316	0.99697
1095.42460	1.00205
1093.49603	1.01130
1091.56747	1.02350
1089.63890	1.03908
1087.71034	1.05783
1085.78177	1.07844
1083.85321	1.09791
1081.92464	1.11195
1079.99608	1.11976
1078.06752	1.12268
1076.13895	1.12105
1074.21039	1.11586
1072.28182	1.10828
1070.35326	1.10007
1068.42469	1.09252
1066.49613	1.08394
1064.56756	1.07470
1062.63900	1.06814
1060.71044	1.06304
1058.78187	1.05684
1056.85331	1.05103
1054.92474	1.04552
1052.99618	1.03865
1051.06761	1.03165
1049.13905	1.02618
1047.21049	1.02293
1045.28192	1.02245
1043.35336	1.02403
1041.42479	1.02597
1039.49623	1.02713
1037.56766	1.02676
1035.63910	1.02497
1033.71053	1.02313
1031.78197	1.02109
1029.85341	1.01689
1027.92484	1.00967
1025.99628	0.99996
1024.06771	0.98891
1022.13915	0.97842
1020.21058	0.97020
1018.28202	0.96439
1016.35345	0.95931
1014.42489	0.95227
1012.49633	0.94130
1010.56776	0.92653
1008.63920	0.90890
1006.71063	0.88931
1004.78207	0.86996
1002.85350	0.85262
1000.92494	0.83703
998.99637	0.82364
997.06781	0.81303
995.13925	0.80281
993.21068	0.79103
991.28212	0.77847
989.35355	0.76497
987.42499	0.74978
985.49642	0.73426
983.56786	0.72050
981.63929	0.70930
979.71073	0.70074
977.78217	0.69460
975.85360	0.68927
973.92504	0.68257
971.99647	0.67396
970.06791	0.66429
968.13934	0.65474
966.21078	0.64684
964.28221	0.64178
962.35365	0.64082
960.42509	0.64614
958.49652	0.65807
956.56796	0.67224
954.63939	0.68198
952.71083	0.68399
950.78226	0.67998
948.85370	0.67352
946.92513	0.66764
944.99657	0.66395
943.06801	0.66294
941.13944	0.66416
939.21088	0.66643
937.28231	0.66880
935.35375	0.67071
933.42518	0.67214
931.49662	0.67389
929.56805	0.67615
927.63949	0.67836
925.71093	0.68051
923.78236	0.68265
921.85380	0.68353
919.92523	0.68175
917.99667	0.67803
916.06810	0.67409
914.13954	0.67028
912.21098	0.66652
910.28241	0.66389
908.35385	0.66331
906.42528	0.66395
904.49672	0.66505
902.56815	0.66705
900.63959	0.66920
898.71102	0.66944
896.78246	0.66731
894.85390	0.66399
892.92533	0.66012
890.99677	0.65632
889.06820	0.65325
887.13964	0.65065
885.21107	0.64846
883.28251	0.64722
881.35394	0.64751
879.42538	0.64924
877.49682	0.65116
875.56825	0.65224
873.63969	0.65249
871.71112	0.65239
869.78256	0.65281
867.85399	0.65396
865.92543	0.65488
863.99686	0.65491
862.06830	0.65453
860.13974	0.65444
858.21117	0.65444
856.28261	0.65440
854.35404	0.65490
852.42548	0.65519
850.49691	0.65405
848.56835	0.65224
846.63978	0.65063
844.71122	0.64904
842.78266	0.64734
840.85409	0.64592
838.92553	0.64548
836.99696	0.64634
835.06840	0.64842
833.13983	0.65093
831.21127	0.65248
829.28270	0.65310
827.35414	0.65440
825.42558	0.65709
823.49701	0.66015
821.56845	0.66292
819.63988	0.66611
817.71132	0.66988
815.78275	0.67330
813.85419	0.67592
811.92562	0.67790
809.99706	0.67942
808.06850	0.68080
806.13993	0.68171
804.21137	0.68202
802.28280	0.68285
800.35424	0.68456
798.42567	0.68607
796.49711	0.68686
794.56854	0.68753
792.63998	0.68906
790.71142	0.69197
788.78285	0.69616
786.85429	0.70166
784.92572	0.70797
782.99716	0.71396
781.06859	0.71995
779.14003	0.72679
777.21147	0.73497
775.28290	0.74465
773.35434	0.75475
771.42577	0.76425
769.49721	0.77320
767.56864	0.78210
765.64008	0.79100
763.71151	0.79926
761.78295	0.80712
759.85439	0.81583
757.92582	0.82584
755.99726	0.83572
754.06869	0.84395
752.14013	0.85089
750.21156	0.85753
748.28300	0.86382
746.35443	0.86816
744.42587	0.86999
742.49731	0.87104
740.56874	0.87172
738.64018	0.87134
736.71161	0.87056
734.78305	0.87101
732.85448	0.87339
730.92592	0.87689
728.99735	0.88058
727.06879	0.88483
725.14023	0.89102
723.21166	0.89965
721.28310	0.90911
719.35453	0.91680
717.42597	0.92264
715.49740	0.92973
713.56884	0.93934
711.64027	0.94963
709.71171	0.95930
707.78315	0.96862
705.85458	0.97786
703.92602	0.98657
701.99745	0.99358
700.06889	0.99724
698.14032	0.99800
696.21176	0.99781
694.28319	0.99680
692.35463	0.99551
690.42607	0.99419
688.49750	0.99093
686.56894	0.98623
684.64037	0.98216
682.71181	0.97800
680.78324	0.97199
678.85468	0.96361
676.92611	0.95504
674.99755	0.94902
673.06899	0.94525
671.14042	0.94134
669.21186	0.93602
667.28329	0.93459
665.35473	0.93688
663.42616	0.93781
661.49760	0.93911
659.56903	0.94365
657.64047	0.95126
655.71191	0.95927
653.78334	0.96602
651.85478	0.97228
649.92621	0.97900
647.99765	0.98732
646.06908	0.99844
644.14052	1.01120
642.21195	1.02218
640.28339	1.02777
638.35483	1.02885
636.42626	1.03140
634.49770	1.03517
632.56913	1.03246
630.64057	1.02401
628.71200	1.01804
626.78344	1.01579
624.85488	1.01392
622.92631	1.01215
620.99775	1.00904
619.06918	1.00099
617.14062	0.98898
615.21205	0.97884
613.28349	0.97343
611.35492	0.96984
609.42636	0.96495
607.49780	0.95850
605.56923	0.95133
603.64067	0.94659
601.71210	0.94723
599.78354	0.95232
